t, ch0, ch1, ch2, ch3, ch4, ch5, ch6, ch7, x, y
1486636456.5875924, -94, 21, 3, -17, -120, -131, -167, -120, 50, 1390
1486636456.5876331, -14, -2, 18, 5, 70, -148, -181, -118, 50, 1390
1486636456.5876586, 98, -30, 24, 24, 261, -166, -199, -127, 50, 1390
1486636456.5876799, 94, -10, 23, 12, 63, -193, -215, -153, 50, 1390
1486636456.5876992, -10, 24, 3, -13, -201, -219, -227, -184, 50, 1390
1486636456.5877185, -92, 16, 16, -18, -193, -231, -231, -190, 50, 1390
1486636456.5877404, -9, -12, 22, 8, 57, -234, -245, -181, 50, 1390
1486636456.5877597, 101, -28, 37, 20, 196, -237, -239, -176, 50, 1390
1486636456.5877786, 86, -1, 27, -1, 0, -239, -238, -187, 50, 1390
1486636456.5877972, -37, 18, 14, -14, -113, -105, -146, -94, 50, 1390
1486636456.5878158, -90, 20, 10, -4, -168, -239, -236, -189, 50, 1390
1486636456.5878341, 6, -11, 23, 12, 124, -233, -246, -178, 50, 1390
1486636456.5878527, 116, -23, 32, 26, 261, -166, -199, -127, 50, 1390
1486636456.587871, 78, 10, 25, 2, 21, -222, -227, -175, 50, 1390
1486636456.5878897, -71, 9, 21, -15, -52, -209, -229, -145, 50, 1390
1486636456.5879078, 44, -23, 36, 20, 209, -202, -233, -129, 50, 1390
1486636456.5879283, -2, 20, 18, -15, -59, -97, -161, -57, 50, 1390
1486636456.587949, -101, 23, 3, -31, -53, -75, -149, -36, 50, 1390
1486636456.5879695, -17, -10, 11, -1, 209, -39, -134, 0, 50, 1390
1486636456.5879908, 97, -25, 30, 20, 410, -7, -120, 35, 50, 1390
1486636456.58801, -54, 15, 10, -20, 29, 86, -23, 79, 50, 1390
1486636456.5880282, -75, 11, 14, -12, 163, 79, -30, 89, 50, 1390
1486636456.5886915, 12, -19, 31, 12, 388, 89, -39, 91, 50, 1390
1486636456.5887237, 131, -29, 37, 6, 430, 94, -34, 102, 50, 1390
1486636456.5887473, 27, 11, 18, -17, 130, 75, -47, 54, 50, 1390
1486636456.5887678, -91, 27, 3, -21, 81, 78, -42, 48, 50, 1390
1486636456.5887876, -38, -12, 12, -1, 246, 69, -58, 58, 50, 1390
1486636456.5888069, 93, -29, 35, 11, 475, 79, -49, 77, 50, 1390
1486636456.5888293, -27, 21, 7, -16, 33, 65, -7, 51, 50, 1390
1486636456.5888503, -92, 16, 11, -14, 58, 68, -8, 47, 50, 1390
1486636456.5888693, 8, -6, 22, -11, 307, 68, -22, 56, 50, 1390
1486636456.5888882, 110, -24, 43, 16, 406, 75, -22, 70, 50, 1390
1486636456.5889068, 128, -26, 41, 29, 378, 63, -28, 63, 50, 1390
1486636456.5889275, 45, 0, 31, 8, 124, 60, -20, 43, 50, 1390
1486636456.588947, -79, 16, 10, -13, -28, 53, -20, 39, 50, 1390
1486636456.588966, -66, 4, 12, -8, 168, 51, -32, 43, 50, 1390
1486636456.5889847, 64, -32, 26, 18, 371, 57, -30, 66, 50, 1390
1486636456.5890036, 126, -22, 39, 18, 350, 63, -21, 68, 50, 1390
1486636456.5890222, 28, -3, 32, 5, 81, 59, -18, 53, 50, 1390
1486636456.5890408, -93, 17, 9, -17, -16, 54, -16, 46, 50, 1390
1486636456.589059, -57, -5, 10, -7, 142, 53, -24, 52, 50, 1390
1486636456.5890806, 83, -24, 33, 13, 394, 59, -26, 72, 50, 1390
1486636456.589101, 123, -22, 33, 18, 328, 63, -17, 70, 50, 1390
1486636456.5891197, 19, 9, 14, -3, 75, 50, -16, 50, 50, 1390
1486636456.5891383, -94, 22, -3, -21, -9, 48, -19, 46, 50, 1390
1486636456.5896027, -28, -9, 24, -9, 184, 50, -27, 53, 50, 1390
1486636456.5896347, 92, -26, 30, 19, 409, 52, -25, 75, 50, 1390
1486636456.589657, 103, -17, 27, 5, 286, 46, -23, 70, 50, 1390
1486636456.589677, 8, 17, 4, -13, 52, 49, -12, 59, 50, 1390
1486636456.5896964, -86, 16, 6, -15, 24, 50, -18, 46, 50, 1390
1486636456.5897155, -14, -8, 15, 5, 236, 45, -29, 58, 50, 1390
1486636456.5897343, 95, -28, 37, 18, 427, 54, -26, 70, 50, 1390
1486636456.5897532, 100, -11, 26, 5, 249, 53, -21, 70, 50, 1390
1486636456.5897715, -13, 21, 20, -13, -4, 50, -12, 51, 50, 1390
1486636456.5897899, -97, 13, 11, -10, 57, 48, -19, 44, 50, 1390
1486636456.5898085, -5, -3, 20, 11, 289, 48, -25, 63, 50, 1390
1486636456.5898268, 98, -31, 29, 20, 406, 52, -30, 68, 50, 1390
1486636456.5898504, 87, -13, 24, 4, 240, 46, -19, 64, 50, 1390
1486636456.58987, -32, 17, 9, -12, -6, 42, -12, 44, 50, 1390
1486636456.5898895, -88, 12, 7, -14, 72, 42, -18, 45, 50, 1390
1486636456.5899084, 2, -14, 17, 3, 283, 48, -22, 61, 50, 1390
1486636456.589927, 123, -34, 39, 25, 402, 54, -23, 72, 50, 1390
1486636456.589953, 80, -4, 16, 6, 200, 50, -15, 57, 50, 1390
1486636456.5899718, -54, 19, 2, -13, -4, 50, -12, 51, 50, 1390
1486636456.5899913, -85, 18, 1, -13, 82, 43, -21, 38, 50, 1390
1486636456.5900104, 11, -11, 28, 5, 307, 44, -24, 59, 50, 1390
1486636456.590031, 123, -34, 31, 26, 373, 52, -30, 68, 50, 1390
1486636456.5900517, 64, 6, 29, 7, 181, 48, -12, 54, 50, 1390
1486636456.5900726, -59, 28, 10, -16, -66, 39, -22, 41, 50, 1390
1486636456.5941117, -78, 12, 7, -14, 72, 42, -18, 45, 50, 1390
1486636456.594147, 132, -22, 33, 14, 365, 45, -29, 60, 50, 1390
1486636456.5941706, 44, 3, 26, 3, 402, 54, -23, 72, 50, 1390
1486636456.5941913, -62, 24, 6, -30, -44, 35, -20, 41, 50, 1390
1486636456.5942116, -69, 4, 7, -10, 128, 42, -23, 49, 50, 1390
1486636456.594231, 52, -20, 28, 15, 98, 43, -21, 38, 50, 1390
1486636456.5942497, 128, -24, 34, 27, 324, 47, -18, 62, 50, 1390
1486636456.5942683, 31, 5, 24, 3, 94, 45, -8, 49, 50, 1390
1486636456.594287, -74, 20, 4, -15, -28, 36, -12, 54, 50, 1390
1486636456.5943055, -55, -1, 21, 1, 169, 40, -26, 44, 50, 1390
1486636456.5943239, 73, -25, 35, 13, 359, 52, -21, 62, 50, 1390
1486636456.5943425, 123, -19, 44, 22, 330, 50, -29, 60, 50, 1390
1486636456.5943608, 29, 14, 22, 0, 40, 46, -8, 46, 50, 1390
1486636456.5943792, -82, 20, 15, -20, 1, 41, -17, 38, 50, 1390
1486636456.5943975, -49, -11, 23, 1, 159, 37, -25, 46, 50, 1390
1486636456.594416, 92, -26, 40, 16, 380, 48, -27, 62, 50, 1390
1486636456.5944343, 112, -11, 37, 12, 282, 48, -15, 58, 50, 1390
1486636456.5944526, 21, 16, 17, -16, 45, 39, -13, 46, 50, 1390
1486636456.5944738, -104, 21, 4, -23, -7, 43, -13, 38, 50, 1390
1486636456.5944946, -17, -8, 20, -8, 182, 45, -16, 52, 50, 1390
1486636456.594515, 103, -23, 32, 24, 415, 52, -21, 62, 50, 1390
1486636456.5945344, 109, -16, 23, 18, 261, 47, -17, 62, 50, 1390
1486636456.5945525, -7, 12, 1, -15, 27, 43, -13, 46, 50, 1390
1486636456.5956988, -96, 22, 9, -12, 23, 41, -17, 38, 50, 1390
1486636456.59574, -10, -9, 14, 13, 229, 36, -26, 50, 50, 1390
1486636456.5957632, 97, -26, 36, 27, 428, 45, -18, 68, 50, 1390
1486636456.5957882, 102, -4, 23, 11, 225, 42, -11, 58, 50, 1390
1486636456.5958085, -24, 21, 14, -22, -6, 44, -6, 46, 50, 1390
1486636456.595828, -86, 22, 10, -22, 35, 38, -17, 40, 50, 1390
1486636456.595847, -8, -15, 17, 3, 293, 40, -21, 53, 50, 1390
1486636456.5958655, 105, -29, 24, 17, 413, 48, -21, 64, 50, 1390
1486636456.5959096, 89, -3, 34, 1, 205, 45, -13, 57, 50, 1390
1486636456.5959291, -45, 23, 0, -15, -19, 32, -18, 37, 50, 1390
1486636456.595948, -91, 12, 14, -10, 81, 34, -19, 46, 50, 1390
1486636456.5959668, 5, -17, 22, 13, 303, 43, -23, 57, 50, 1390
1486636456.5959854, 115, -30, 38, 24, 373, 48, -11, 67, 50, 1390
1486636456.5960038, 60, 0, 30, 6, 186, 46, 1, 66, 50, 1390
1486636456.5960224, -56, 23, 11, -23, -53, 42, 4, 50, 50, 1390
1486636456.5960412, -75, 9, 14, -15, 68, 42, -4, 52, 50, 1390
1486636456.5960624, 22, -24, 37, 4, 309, 42, -17, 70, 50, 1390
1486636456.5960817, 132, -19, 41, 13, 382, 43, -19, 70, 50, 1390
1486636456.5961003, 56, 0, 25, -2, 167, 45, -13, 57, 50, 1390
1486636456.5961187, -71, 23, 10, -20, -51, 39, -6, 41, 50, 1390
1486636456.5961397, -78, 10, 10, -5, 108, 38, -13, 47, 50, 1390
1486636456.5961587, 36, -22, 27, 17, 355, 43, -11, 67, 50, 1390
1486636456.596177, 142, -25, 32, 14, 336, 47, -7, 70, 50, 1390
1486636456.596787, 49, 15, 26, -1, 84, 39, 4, 56, 50, 1390
1486636456.5968187, -67, 22, 9, -23, -44, 35, 3, 47, 50, 1390
1486636456.5968418, -62, 8, 14, -15, 68, 42, -4, 52, 50, 1390
1486636456.5968664, 58, -32, 20, 19, 319, 42, -12, 55, 50, 1390
1486636456.5968866, 119, -21, 28, 7, 298, 38, -12, 51, 50, 1390
1486636456.5969057, 33, 2, 15, -2, 167, 38, -11, 59, 50, 1390
1486636456.596925, -72, 30, 10, -31, -69, 25, -8, 29, 50, 1390
1486636456.596944, -53, -2, 23, -3, 126, 31, -12, 40, 50, 1390
1486636456.596963, 80, -29, 31, 13, 355, 43, -11, 67, 50, 1390
1486636456.5969818, 116, -16, 31, 11, 273, 31, -6, 53, 50, 1390
1486636456.5970569, 30, 15, 23, -7, 27, 28, -1, 38, 50, 1390
1486636456.5971003, -94, 23, -2, -15, -44, 35, 3, 47, 50, 1390
1486636456.5971212, -44, -7, 20, -9, 153, 21, -14, 34, 50, 1390
1486636456.5971618, 90, -27, 33, 17, 363, 19, -14, 54, 50, 1390
1486636456.5972042, 122, -20, 30, 11, 298, 38, -12, 51, 50, 1390
1486636456.5972254, 6, 9, 8, -10, -38, 20, 5, 28, 50, 1390
1486636456.5972812, -95, 31, 0, -17, -43, 15, 1, 27, 50, 1390
1486636456.597305, -12, -2, 31, 1, 173, 31, -12, 40, 50, 1390
1486636456.5973246, 99, -26, 30, 17, 367, 22, -14, 43, 50, 1390
1486636456.5973437, 102, -9, 27, 10, 231, 27, -2, 44, 50, 1390
1486636456.597363, -19, 18, 5, -18, -12, 23, -1, 38, 50, 1390
1486636456.5973816, -91, 17, 7, -19, -20, 18, 0, 26, 50, 1390
1486636456.5974, -7, -5, 12, -2, 199, 25, -6, 41, 50, 1390
1486636456.5977597, 97, -21, 46, 23, 377, 30, -3, 53, 50, 1390
1486636456.5978274, 79, -10, 28, -1, 191, 32, 8, 44, 50, 1390
1486636456.597852, -21, 27, 18, -16, -50, 28, 14, 27, 50, 1390
1486636456.5978727, -98, 15, 17, -9, -28, 18, 1, 30, 50, 1390
1486636456.5978923, 9, -13, 29, 14, 285, 19, -9, 45, 50, 1390
1486636456.5979118, 115, -31, 36, 21, 328, 31, -1, 57, 50, 1390
1486636456.597931, 83, -1, 28, -4, 162, 33, 10, 50, 50, 1390
1486636456.5979502, -50, 15, 8, -10, -101, 23, 15, 37, 50, 1390
1486636456.5979693, -80, 12, 15, -6, 68, 24, 8, 32, 50, 1390
1486636456.5979881, 13, -12, 27, 7, 254, 23, -4, 41, 50, 1390
1486636456.5980067, 119, -29, 33, 16, 316, 29, -3, 50, 50, 1390
1486636456.5980263, 59, -1, 19, 2, 148, 29, 7, 42, 50, 1390
1486636456.5980449, -64, 25, 8, -24, -68, 23, 4, 31, 50, 1390
1486636456.598064, -83, 9, 3, -16, 70, 29, 3, 39, 50, 1390
1486636456.5980825, 34, -17, 35, 14, 301, 34, 3, 68, 50, 1390
1486636456.5981011, 120, -32, 39, 17, 346, 36, 4, 79, 50, 1390
1486636456.5981197, 61, 7, 26, 3, 127, 16, -22, 32, 50, 1390
1486636456.5981383, -63, 21, 2, -19, -65, -8, -64, 10, 50, 1390
1486636456.5981572, -62, 12, 18, -5, 134, 24, 8, 32, 50, 1390
1486636456.5981755, 55, -21, 34, 12, 385, -30, -147, 13, 50, 1390
1486636456.5981944, 119, -24, 16, 8, 384, -46, -179, -2, 50, 1390
1486636456.598213, 35, 11, 26, -3, 138, -71, 7, 42, 50, 1390
1486636456.5982313, -70, 22, 9, -17, 14, -97, -248, -60, 50, 1390
1486636456.5982497, -56, -1, 27, -1, 243, -109, -294, -70, 50, 1390
1486636456.5985782, 72, -35, 25, 16, 453, -119, -327, 68, 50, 1390
1486636456.5986156, 119, -22, 32, 14, 415, -133, -350, -80, 50, 1390
1486636456.5986366, 34, 14, 23, -7, 171, -145, -371, -100, 50, 1390
1486636456.5986562, -87, 21, 9, -17, 140, -159, -414, -133, 50, 1390
1486636456.5986753, -32, -1, 13, -9, 311, -174, -449, -141, 50, 1390
1486636456.5986938, 86, -20, 31, 16, 570, -166, -456, -125, 50, 1390
1486636456.5987127, 119, -16, 33, 6, 479, -174, -179, -2, 50, 1390
1486636456.5987308, 20, 8, 15, -11, 239, -182, -484, -147, 50, 1390
1486636456.5987492, -95, 20, -7, -21, 241, -178, -487, -142, 50, 1390
1486636456.598772, -27, -12, 18, -9, 435, -173, -497, -70, 50, 1390
1486636456.598791, 96, -35, 21, 26, 627, -162, -497, -112, 50, 1390
1486636456.5988097, 99, -23, 22, 13, 488, -158, -478, -110, 50, 1390
1486636456.5988307, -13, 22, 4, -13, 250, -159, -463, -125, 50, 1390
1486636456.5988495, -99, 16, 10, -16, 254, -171, -481, -135, 50, 1390
1486636456.5988677, -17, -14, 12, -5, 473, -162, -486, -130, 50, 1390
1486636456.5988865, 108, -32, 28, 17, 622, -155, -479, -112, 50, 1390
1486636456.5989058, 103, -16, 33, 6, 479, -174, -472, -129, 50, 1390
1486636456.5989254, -95, 14, 16, -14, 246, -157, -467, -139, 50, 1390
1486636456.5989478, 0, -6, 26, 3, 503, -150, -463, -113, 50, 1390
1486636456.598967, 114, -29, 39, 15, 628, -143, -455, -99, 50, 1390
1486636456.5989852, 83, 0, 21, -5, 450, -143, -443, -107, 50, 1390
1486636456.5990036, 212, -23, 22, 13, 488, -158, -478, -110, 50, 1390
1486636456.599022, -82, 11, 4, -18, 270, -150, -446, -126, 50, 1390
1486636456.6019664, 2, -21, 21, 5, 534, -141, -452, -106, 50, 1390
1486636456.6020038, 122, -29, 36, 16, 333, -162, -486, -130, 50, 1390
1486636456.602028, 66, -4, 21, -5, 410, -145, -435, -107, 50, 1390
1486636456.6020489, -56, 25, 11, -25, 176, -144, -428, -126, 50, 1390
1486636456.6020687, -81, 13, 13, -14, 320, -144, -467, -139, 50, 1390
1486636456.6020877, 10, -20, 22, 7, 549, -137, -439, -111, 50, 1390
1486636456.6021066, 133, -27, 35, 7, 574, -139, -441, -110, 50, 1390
1486636456.6021557, 60, 2, 21, -2, 387, -145, -433, -121, 50, 1390
1486636456.602176, -64, 20, 8, -24, 179, -145, -428, -129, 50, 1390
1486636456.602195, -71, 10, 6, -20, 325, -144, -440, -127, 50, 1390
1486636456.6022139, 39, -21, 30, 6, 557, -141, -452, -106, 50, 1390
1486636456.6022322, 123, -29, 32, 15, 548, -131, -424, -104, 50, 1390
1486636456.602251, 45, -4, 26, 2, 331, -135, -410, -112, 50, 1390
1486636456.6022696, -63, 25, 8, -31, 162, -141, -428, -126, 50, 1390
1486636456.6022882, -57, 4, 15, -8, 330, -141, -418, -117, 50, 1390
1486636456.6023278, 57, -24, 25, 3, 552, -129, -413, -102, 50, 1390
1486636456.6023505, 116, -33, 28, 8, 526, -125, -406, -102, 50, 1390
1486636456.602371, 28, 6, 27, -3, 289, -131, -398, -120, 50, 1390
1486636456.6023905, -79, 31, 0, -23, 164, -136, -404, -129, 50, 1390
1486636456.6024122, -42, 11, 8, -10, 323, -128, -405, -117, 50, 1390
1486636456.6024315, 75, -36, 19, 18, 562, -128, -406, -108, 50, 1390
1486636456.60245, 119, -18, 23, 13, 490, -127, -399, -110, 50, 1390
1486636456.6024683, 33, 8, 18, -11, 233, -127, -388, -123, 50, 1390
1486636456.602727, -80, 24, 4, -23, 172, -133, -391, -131, 50, 1390
1486636456.602765, -35, -4, 20, 0, 355, -132, -406, -122, 50, 1390
1486636456.6028078, 92, -26, 25, 13, 602, -129, -413, -102, 50, 1390
1486636456.6028311, 109, -10, 19, 8, 478, -123, -396, -103, 50, 1390
1486636456.6028523, 6, 17, 15, -12, 206, -125, -388, -120, 50, 1390
1486636456.6028728, -94, 24, 5, -22, 168, -136, -404, -129, 50, 1390
1486636456.602893, -15, -10, 17, -3, 401, -125, -398, -117, 50, 1390
1486636456.6029124, 87, -29, 21, 15, 572, -114, -392, -108, 50, 1390
1486636456.6029322, 101, -11, 29, 5, 409, -114, -390, -110, 50, 1390
1486636456.6029518, -8, 20, 20, -22, 192, -125, -384, -124, 50, 1390
1486636456.602971, -95, 24, 8, -17, 225, -128, -387, -118, 50, 1390
1486636456.6029906, -5, -12, 18, -3, 423, -126, -393, -107, 50, 1390
1486636456.60301, 102, -36, 32, 18, 570, -123, -396, -96, 50, 1390
1486636456.6030295, 90, -10, 23, 10, 408, -124, -388, -104, 50, 1390
1486636456.6030576, -31, 21, 7, -22, 186, -126, -384, -122, 50, 1390
1486636456.6030767, -94, 19, 9, -22, 232, -133, -393, -121, 50, 1390
1486636456.6030996, -1, -3, 28, 6, 493, -124, -399, -106, 50, 1390
1486636456.603121, 117, -24, 35, 22, 595, -123, -392, -108, 50, 1390
1486636456.6031413, 72, -17, 19, 7, 374, -114, -364, -116, 50, 1390
1486636456.6031601, -57, 20, 12, -16, 136, -125, -352, -127, 50, 1390
1486636456.6031914, -91, 15, 12, -8, 230, -115, -344, -110, 50, 1390
1486636456.6052673, 14, -10, 29, 11, 448, -109, -346, -110, 50, 1390
1486636456.6053324, 122, -37, 37, 15, 446, -106, -299, -92, 50, 1390
1486636456.6053586, 60, -8, 31, 1, 237, -96, -241, -92, 50, 1390
1486636456.605381, -57, 19, 8, -27, -51, -92, -197, -95, 50, 1390
1486636456.6054115, -70, 10, 9, -13, 70, -75, -163, -70, 50, 1390
1486636456.605438, 25, -17, 38, 25, 242, -56, -114, -43, 50, 1390
1486636456.6054587, 133, -25, 33, 22, 595, -123, -399, -99, 50, 1390
1486636456.6054778, 56, 4, 22, 0, -1, -38, -4, -27, 50, 1390
1486636456.6054974, -52, 24, 9, -24, -241, -28, 34, -22, 50, 1390
1486636456.6055164, -68, 11, 23, -6, 230, -115, -344, -110, 50, 1390
1486636456.605536, 44, -30, 29, 9, 137, 9, 88, 28, 50, 1390
1486636456.6055553, 130, -20, 24, 12, 116, 18, 117, 46, 50, 1390
1486636456.6055744, 39, 6, 29, -2, 237, -96, -241, -92, 50, 1390
1486636456.6055932, -72, 21, -1, -21, -310, 32, 163, 46, 50, 1390
1486636456.605612, -67, -2, 16, -1, -99, 43, 161, 59, 50, 1390
1486636456.6056309, 63, -26, 21, 21, 145, -56, -114, -43, 50, 1390
1486636456.60565, 124, -24, 28, 21, 111, 64, 181, 87, 50, 1390
1486636456.6056688, 27, 0, 30, 3, -171, 57, 183, 74, 50, 1390
1486636456.605688, -88, 30, 13, -11, -214, 68, 185, -22, 50, 1390
1486636456.6057096, -43, -1, 16, -6, -39, 61, 156, 72, 50, 1390
1486636456.6057298, 81, -26, 34, 12, 201, 73, 153, 95, 50, 1390
1486636456.6057677, 126, -9, 31, 18, 147, 72, 146, 84, 50, 1390
1486636456.605788, 23, 12, 24, -5, -154, 66, 150, 72, 50, 1390
1486636456.6069658, -94, 27, 6, -16, -161, 63, 141, 57, 50, 1390
1486636456.6070082, -35, 3, 15, -5, 22, 64, 119, 63, 50, 1390
1486636456.6070342, 94, -24, 32, 21, 259, 68, 116, 72, 50, 1390
1486636456.607056, 103, -16, 26, 18, 105, 64, 119, 70, 50, 1390
1486636456.6070766, 1, 11, 9, -13, -136, 57, 183, 74, 50, 1390
1486636456.6070964, -94, 24, 2, -15, -123, 52, 109, 49, 50, 1390
1486636456.6071157, -14, -3, 17, -3, 88, 51, 94, 59, 50, 1390
1486636456.6071348, 93, -25, 29, 25, 273, 58, 153, 95, 50, 1390
1486636456.607154, 94, -14, 36, 2, 124, 56, 96, 57, 50, 1390
1486636456.6071734, -17, 25, 8, -18, -107, 51, 93, 35, 50, 1390
1486636456.6071925, -84, 33, 12, -19, -87, 45, 141, 57, 50, 1390
1486636456.6072166, -1, -7, 29, 5, 128, 47, 77, 54, 50, 1390
1486636456.6072369, 108, -28, 41, 20, 293, 51, 73, 60, 50, 1390
1486636456.6072557, 93, -4, 30, 7, 110, 56, 88, 47, 50, 1390
1486636456.607275, -34, 26, 19, -19, -141, 48, 94, 40, 50, 1390
1486636456.6072943, -86, 19, 13, -10, -62, 46, 86, 45, 50, 1390
1486636456.6073132, 0, -12, 30, 5, 171, 51, 94, 59, 50, 1390
1486636456.6073327, 111, -33, 34, 26, 268, 54, 81, 59, 50, 1390
1486636456.6073523, 82, -2, 23, -2, 85, 50, 84, 48, 50, 1390
1486636456.6073744, -42, 20, 14, -13, -165, 52, 93, 35, 50, 1390
1486636456.6073942, -83, 15, 19, -4, -32, 38, 77, 45, 50, 1390
1486636456.607422, 3, -16, 28, 10, 222, 46, 65, 68, 50, 1390
1486636456.6074426, 124, -29, 45, 20, 263, 55, 74, 71, 50, 1390
1486636456.6077497, 69, 3, 27, 3, 57, 53, 84, 62, 50, 1390
1486636456.6077898, -58, 20, 11, -25, -154, 44, 85, 49, 50, 1390
1486636456.6078157, -75, 9, 8, -9, -1, 47, 80, 51, 50, 1390
1486636456.6078377, 30, -15, 30, 13, 243, 53, 70, 65, 50, 1390
1486636456.607859, 133, -31, 29, 15, 267, 59, 70, 68, 50, 1390
1486636456.6078792, 51, -2, 16, 6, 35, 50, 84, 48, 50, 1390
1486636456.6078992, -68, 31, 2, -23, -160, 43, 75, 37, 50, 1390
1486636456.6079192, -68, 3, 4, -23, 25, 50, 70, 41, 50, 1390
1486636456.6079388, 59, -27, 21, 8, 256, 50, 70, 68, 50, 1390
1486636456.6079588, 128, -29, 25, 17, 252, 52, 73, 60, 50, 1390
1486636456.6079788, 31, -2, 17, -3, -3, 56, 85, 51, 50, 1390
1486636456.6080027, -84, 19, 2, -20, -145, 53, 79, 43, 50, 1390
1486636456.608023, -59, 3, 23, -5, 49, 55, 73, 47, 50, 1390
1486636456.6080427, 64, -31, 32, 24, 273, 63, 75, 62, 50, 1390
1486636456.6080625, 129, -24, 25, 15, 226, 64, 78, 66, 50, 1390
1486636456.6080823, 33, -2, 16, 6, 35, 54, 79, 49, 50, 1390
1486636456.6081018, -78, 32, 7, -14, -118, 52, 80, 30, 50, 1390
1486636456.6081216, -47, -4, 20, 5, 68, 53, 77, 43, 50, 1390
1486636456.6081445, 81, -22, 21, 8, 256, 50, 70, 58, 50, 1390
1486636456.6081653, 116, -17, 22, 4, 196, 63, 72, 48, 50, 1390
1486636456.6081872, 20, 8, 15, -24, -81, 53, 84, 45, 50, 1390
1486636456.6082132, -89, 21, 8, -20, -145, 53, 79, 43, 50, 1390
1486636456.608237, -33, -19, 15, -10, 114, 55, 75, 43, 50, 1390
1486636456.608257, 91, -22, 27, 21, 283, 60, 103, 53, 50, 1390
1486636456.6086075, 115, -16, 30, 15, 226, 64, 78, 66, 50, 1390
1486636456.6086717, -3, 15, 10, -8, -89, 56, 104, 34, 50, 1390
1486636456.6086984, -104, 15, 11, -11, -126, 42, 111, 18, 50, 1390
1486636456.6087208, -13, -1, 18, -1, 68, 53, 77, 43, 50, 1390
1486636456.608742, 94, -33, 39, 26, 221, 49, 147, 46, 50, 1390
1486636456.6087716, 94, -12, 33, 8, -8, 48, 174, 38, 50, 1390
1486636456.6087916, -23, 29, 22, -9, -255, 34, 193, 45, 50, 1390
1486636456.6088114, -95, 20, 1, -25, -275, 26, 198, -1, 50, 1390
1486636456.6088307, -8, -4, 14, 4, -22, 24, 191, 12, 50, 1390
1486636456.6088502, 107, -30, 45, 29, 82, 35, 204, 29, 50, 1390
1486636456.6088696, 94, -9, 34, 13, -83, 38, 215, 25, 50, 1390
1486636456.6088898, -42, 34, 13, -10, -340, 26, 204, 3, 50, 1390
1486636456.6089096, -92, 14, 12, -9, -257, 27, 194, 0, 50, 1390
1486636456.6089287, 3, -10, 21, 14, 24, 32, 174, 16, 50, 1390
1486636456.6089482, 117, -30, 39, 27, 121, 41, 178, 31, 50, 1390
1486636456.6089675, 68, 6, 30, 1, -52, 48, 174, 38, 50, 1390
1486636456.6089869, -54, 20, 3, -25, -306, 40, 182, 8, 50, 1390
1486636456.6090064, -78, 11, 12, -6, -169, 34, 167, 14, 50, 1390
1486636456.609026, 20, -12, 31, 21, -147, 24, 191, 12, 50, 1390
1486636456.6090457, 130, -22, 45, 24, 149, 47, 165, 35, 50, 1390
1486636456.6090655, 52, 2, 24, 6, -79, 46, 171, 21, 50, 1390
1486636456.6090841, -61, 23, 16, -16, -312, 38, 161, 4, 50, 1390
1486636456.6091034, -81, 9, 4, -5, -131, 31, 156, 5, 50, 1390
1486636456.6098762, 27, -23, 33, 19, 123, 40, 154, 19, 50, 1390
1486636456.6099148, 27, -9, 36, 15, 33, -421, -388, -337, 50, 1390
1486636456.609944, 134, -22, 42, 17, 58, -412, -374, -327, 50, 1390
1486636456.6099663, 52, 15, 14, -1, -156, -408, -362, -219, 50, 1390
1486636456.6215777, -64, 34, 13, -26, -401, -419, -368, -348, 50, 1390
1486636456.6219444, -65, 13, 23, -13, -192, -416, -375, -346, 50, 1390
1486636456.6219811, 53, -11, 37, 14, 53, -407, -378, -332, 50, 1390
1486636456.635335, 139, -8, 43, 13, 54, -406, -372, -327, 50, 1390
1486636456.6357212, 61, 15, 29, -4, -216, -404, -362, -332, 50, 1390
1486636456.6365426, -81, 26, -3, -24, -367, -406, -363, -338, 50, 1390
1486636456.6428332, -60, 9, 16, -5, -142, -407, -372, -330, 50, 1390
1486636456.6435747, 56, -23, 33, 15, 87, -398, -368, -315, 50, 1390
1486636456.6446536, 128, -9, 44, 19, 62, -394, -356, -306, 50, 1390
1486636456.6579218, 40, 13, 27, -5, -277, -392, -352, -321, 50, 1390
1486636456.6586277, -84, 29, 5, -19, -342, -391, -347, -327, 50, 1390
1486636456.6590881, -45, -1, 18, -5, -123, -416, -375, -346, 50, 1390
1486636456.6728942, 77, -22, 34, 21, 122, -380, -362, -311, 50, 1390
1486636456.6737096, 121, -15, 36, 10, -12, -384, -355, -302, 50, 1390
1486636456.6742306, 17, 7, 21, -1, -287, -378, -362, -332, 50, 1390
1486636456.680355, -100, 26, 10, -15, -300, -374, -340, -319, 50, 1390
1486636456.6811955, -39, -1, 28, 1, -111, -379, -342, -307, 50, 1390
1486636456.6814294, 95, -29, 39, 25, 117, -369, -368, -315, 50, 1390
1486636456.6953087, 120, -8, 37, 18, -38, -364, -323, -295, 50, 1390
1486636456.6961806, 9, 15, 22, -14, -292, -369, -317, -310, 50, 1390
1486636456.6973107, -99, 26, 4, -20, -278, -367, -321, -317, 50, 1390
1486636456.7111158, -15, 1, 29, -4, -79, -365, -332, -305, 50, 1390
1486636456.712569, 103, -18, 38, 22, 114, -360, -326, -285, 50, 1390
1486636456.7126298, 104, -8, 31, 13, -27, -354, -314, -284, 50, 1390
1486636456.7178478, -19, 28, 10, -12, -300, -351, -306, -298, 50, 1390
1486636456.7186174, -91, 20, 10, -13, -257, -348, -301, -300, 50, 1390
1486636456.7188447, -8, -1, 20, 7, -27, -379, -342, -307, 50, 1390
1486636456.7329304, 102, -28, 40, 29, 139, -361, -335, -295, 50, 1390
1486636456.7335906, 95, 2, 28, 7, -78, -367, -326, -306, 50, 1390
1486636456.7340038, -34, 20, 11, -19, -346, -384, -334, -310, 50, 1390
1486636456.747513, -94, 13, 16, -13, -296, -388, -335, -336, 50, 1390
1486636456.7479715, -5, -11, 22, 2, 16, -384, -338, -320, 50, 1390
1486636456.748953, 114, -21, 37, 15, 116, -379, -323, -308, 50, 1390
1486636456.7553625, 77, 5, 37, 1, -116, -376, -317, -316, 50, 1390
1486636456.755994, -53, 28, 17, -9, -378, -376, -317, -331, 50, 1390
1486636456.756767, -93, 13, 12, -8, -250, -380, -327, -328, 50, 1390
1486636456.7581635, 7, -20, 25, 7, -27, -354, -324, -302, 50, 1390
1486636456.7703495, 123, -26, 47, 20, 101, -355, -322, -297, 50, 1390
1486636456.7706058, 71, 7, 21, 4, -143, -357, -312, -306, 50, 1390
1486636456.7716331, -60, 20, 10, -21, -362, -384, -334, -337, 50, 1390
1486636456.7854598, -72, 19, 13, -13, -192, -360, -322, -314, 50, 1390
1486636456.792883, 32, -14, 34, 14, 64, -358, -325, -293, 50, 1390
1486636456.7934787, 135, -27, 44, 15, 116, -379, -323, -308, 50, 1390
1486636456.7943027, 48, -7, 20, -5, -148, -350, -311, -301, 50, 1390
1486636456.7972448, -76, 21, 0, -21, -377, -358, -315, -316, 50, 1390
1486636456.8010628, -64, 6, 16, -5, -250, -380, -327, -328, 50, 1390
1486636456.8099623, 62, -17, 38, 19, 65, -357, -329, -299, 50, 1390
1486636456.810032, 135, -18, 36, 22, 65, -352, -318, -286, 50, 1390
1486636456.8100586, 43, 5, 25, 1, -201, -357, -312, -306, 50, 1390
1486636456.8228323, -81, 24, 2, -17, -352, -357, -308, -307, 50, 1390
1486636456.8235788, -48, 4, 25, 0, -142, -363, -329, -304, 50, 1390
1486636456.824256, 75, -20, 34, 20, 92, -351, -321, -293, 50, 1390
1486636456.8307436, 119, -19, 38, 15, 31, -357, -319, -278, 50, 1390
1486636456.8312814, 16, 9, 11, -9, -268, -356, -316, -290, 50, 1390
1486636456.8322675, -86, 28, 8, -25, -341, -362, -318, -298, 50, 1390
1486636456.8453295, -39, -3, 17, -6, -120, -356, -327, -285, 50, 1390
1486636456.8457053, 93, -19, 39, 19, 130, -351, -324, -267, 50, 1390
1486636456.8472574, 122, -17, 32, 8, 4, -353, -313, -274, 50, 1390
1486636456.8603754, 24, 11, 25, -14, -289, -358, -316, -294, 50, 1390
1486636456.8615448, -89, 17, 12, -17, -322, -363, -323, -307, 50, 1390
1486636456.8622918, -30, -6, 23, -10, -97, -363, -329, -304, 50, 1390
1486636456.8678484, 102, -20, 20, 13, 134, -354, -335, -277, 50, 1390
1486636456.8690722, 112, -18, 43, 8, -54, -353, -318, -274, 50, 1390
1486636456.870036, 3, 14, 18, -23, -300, -356, -316, -290, 50, 1390
1486636456.8828902, -101, 24, 16, -16, -286, -363, -326, -297, 50, 1390
1486636456.8836339, -14, -9, 16, -6, -35, -357, -335, -285, 50, 1390
1486636456.8858883, 106, -25, 36, 14, 114, -349, -327, -272, 50, 1390
1486636456.8975813, 105, 0, 36, 9, -61, -355, -322, -278, 50, 1390
1486636456.8985202, -25, 15, 19, -7, -331, -362, -316, -291, 50, 1390
1486636456.8989844, -93, 20, 22, -10, -252, -358, -318, -293, 50, 1390
1486636456.9128273, 7, 0, 32, 12, -5, -357, -329, -277, 50, 1390
1486636456.9136024, 117, -27, 41, 28, 120, -356, -334, -270, 50, 1390
1486636456.9139884, 90, -7, 38, 13, -78, -349, -322, -270, 50, 1390
1486636456.920439, -41, 20, 27, -13, -303, -349, -314, -278, 50, 1390
1486636456.9207957, -88, 19, 19, -20, -222, -354, -321, -286, 50, 1390
1486636456.9213357, 11, -20, 24, 1, 12, -351, -329, -271, 50, 1390
1486636456.9353836, 126, -32, 46, 27, 136, -347, -322, -258, 50, 1390
1486636456.935617, 76, -2, 31, -1, -72, -351, -314, -271, 50, 1390
1486636456.9367619, -51, 22, 16, -14, -359, -362, -316, -291, 50, 1390
1486636456.9428654, -81, 12, 17, -13, -211, -355, -321, -280, 50, 1390
1486636456.9436119, 12, -18, 31, 9, 52, -353, -325, -264, 50, 1390
1486636456.9438083, 121, -28, 43, 14, 117, -342, -316, -502, 50, 1390
1486636456.957871, 60, 10, 23, 1, -133, -341, -300, -255, 50, 1390
1486636456.9585924, -61, 26, 15, -24, -379, -350, -303, -269, 50, 1390
1486636456.9614887, -66, 12, 14, -8, -191, -350, -312, -274, 50, 1390
1486636456.9728613, 36, -22, 36, 3, 72, -345, -320, -255, 50, 1390
1486636456.9736116, 131, -19, 26, 8, 86, -344, -317, -249, 50, 1390
1486636456.9743967, 43, 8, 23, 2, -156, -349, -301, -260, 50, 1390
1486636456.9803586, -58, 27, 11, -16, -366, -351, -304, -270, 50, 1390
1486636456.9810672, -63, 5, 18, -3, -155, -344, -306, -262, 50, 1390
1486636456.981973, 54, -15, 28, 12, 76, -335, -304, -244, 50, 1390
1486636456.983932, 126, -18, 36, 14, 117, -342, -316, -246, 50, 1390
1486636456.9955, 37, 8, 41, -1, -256, -332, -289, -250, 50, 1390
1486636456.99612, -78, 19, 14, -18, -358, -335, -282, -248, 50, 1390
1486636456.9975023, -60, 7, 15, -8, -191, -350, -312, -274, 50, 1390
1486636457.010394, 65, -26, 40, 18, 99, -329, -292, -229, 50, 1390
1486636457.0110962, 124, -17, 51, 11, 17, -328, -283, -230, 50, 1390
1486636457.013709, 36, 11, 37, -9, -270, -349, -301, -260, 50, 1390
1486636457.0179355, -91, 29, 11, -20, -315, -325, -275, -249, 50, 1390
1486636457.0186307, -41, 1, 17, -1, -98, -330, -285, -252, 50, 1390
1486636457.0189996, 93, -23, 28, 12, 76, -335, -304, -244, 50, 1390
1486636457.0332778, 111, -17, 46, 13, -14, -313, -275, -231, 50, 1390
1486636457.0340104, 9, 17, 26, -11, -266, -313, -264, -241, 50, 1390
1486636457.03621, -104, 20, 12, -22, -281, -316, -282, -248, 50, 1390
1486636457.0478408, -14, -3, 22, -8, -104, -321, -275, -238, 50, 1390
1486636457.0490284, 102, -23, 42, 22, 140, -309, -272, -226, 50, 1390
1486636457.0497284, 107, -17, 37, 9, -35, -305, -262, -230, 50, 1390
1486636457.0554144, -16, 12, 14, -14, -296, -313, -264, -235, 50, 1390
1486636457.0560992, -93, 21, 16, -26, -283, -308, -269, -248, 50, 1390
1486636457.0567245, -12, -8, 20, -1, -20, -299, -276, -252, 50, 1390
1486636457.070338, 106, -31, 39, 20, 144, -300, -282, -220, 50, 1390
1486636457.0707397, 96, -7, 27, 3, -33, -296, -269, -224, 50, 1390
1486636457.0723295, -16, 24, 16, -26, -308, -303, -262, -245, 50, 1390
1486636457.0857916, -97, 21, 3, -12, -242, -303, -265, -241, 50, 1390
1486636457.0859, -6, -8, 16, 3, 48, -301, -269, -223, 50, 1390
1486636457.0895882, 116, -16, 43, 20, 129, -299, -269, -212, 50, 1390
1486636457.0928407, 95, 10, 38, -1, -51, -296, -262, -221, 50, 1390
1486636457.0936217, -48, 19, 11, -11, -323, -302, -260, -232, 50, 1390
1486636457.0945098, -73, 20, 9, -9, -180, -308, -269, -248, 50, 1390
1486636457.1078954, 13, -11, 26, 10, 68, -293, -276, -225, 50, 1390
1486636457.1086218, 133, -19, 49, 20, 108, -283, -264, -207, 50, 1390
1486636457.1096387, 66, 0, 37, 3, -72, -292, -256, -224, 50, 1390
1486636457.124081, -66, 20, 13, -25, -342, -293, -256, -231, 50, 1390
1486636457.12415, -82, 14, 13, -12, -178, -295, -266, -240, 50, 1390
1486636457.1241755, 31, -15, 31, 13, 62, -284, -267, -223, 50, 1390
1486636457.138683, 131, -24, 44, 22, 94, -284, -260, -211, 50, 50
1486636457.1387472, 48, 0, 35, -1, -129, -282, -247, -212, 50, 50
1486636457.1416678, -60, 30, 11, -16, -360, -291, -258, -232, 50, 50
1486636457.1454349, -58, 13, 29, -11, -151, -288, -263, -232, 50, 50
1486636457.1461554, 46, -22, 36, 18, 90, -285, -275, -218, 50, 50
1486636457.1468275, 137, -18, 49, 31, 103, -280, -265, -205, 50, 50
1486636457.1604135, 38, 11, 25, -4, -182, -282, -256, -221, 50, 50
1486636457.1612067, -83, 31, 11, -26, -330, -278, -245, -225, 50, 50
1486636457.1617088, -58, 7, 23, 2, -114, -286, -255, -219, 50, 50
1486636457.168978, 63, -23, 39, 17, 107, -280, -252, -194, 50, 50
1486636457.1697173, 122, -9, 42, 15, 54, -276, -245, -196, 50, 50
1486636457.1697934, 34, 17, 23, 3, -224, -286, -249, -217, 50, 50
1486636457.1825638, -75, 30, 8, -21, -309, -288, -249, -223, 50, 50
1486636457.18332, -52, 0, 20, -5, -78, -289, -267, -224, 50, 50
1486636457.1842628, 76, -22, 30, 6, 144, -285, -275, -218, 50, 50
1486636457.197895, 112, -12, 31, 9, 35, -290, -259, -201, 50, 50
1486636457.1981802, 16, 11, 25, -9, -278, -285, -248, -203, 50, 50
1486636457.2010932, -99, 21, 9, -13, -308, -290, -245, -225, 50, 50
1486636457.205405, -36, 1, 24, -21759, -8705, -2050, 15614, 31743, 50, 50
1486636457.2141614, 112, -8, 39, 6, -17, -275, -248, -181, 50, 50
1486636457.2145486, 122, -9, 42, 15, 54, -276, -245, -196, 50, 50
1486636457.2211692, -96, 22, 15, -9, -258, -288, -259, -212, 50, 50
1486636457.2219975, -17, -6, 19, 6, -27, -288, -263, -197, 50, 50
1486636457.222044, -52, 0, 20, -5, -78, -289, -267, -224, 50, 50
1486636457.2353702, 111, 1, 44, 13, -35, -278, -253, -191, 50, 50
1486636457.2363217, -23, 26, 11, -17, -275, -285, -250, -209, 50, 50
1486636457.237052, 159, 11, 25, -9, -278, -285, -248, -203, 50, 50
1486636457.2428913, 0, 2, 32, 7, 15, -285, -255, -190, 50, 50
1486636457.2435937, 105, -25, 41, 32, 158, -275, -250, -184, 50, 50
1486636457.2440724, 89, -4, 43, 8, -17, -275, -248, -181, 50, 50
1486636457.257948, -26, 38, 5, -19, -284, -282, -246, -209, 50, 50
1486636457.2586315, -88, 24, 14, -10, -224, -282, -254, -209, 50, 50
1486636457.259485, 5, 1, 38, 10, -216, -288, -263, -197, 50, 50
1486636457.2729232, 123, -20, 41, 30, 151, -271, -263, -187, 50, 50
1486636457.273611, 80, 6, 27, 0, -78, -272, -250, -192, 50, 50
1486636457.2740843, -46, 26, 12, -10, -320, -285, -250, -209, 50, 50
1486636457.2804189, -84, 19, 10, -16, -158, -275, -255, -203, 50, 50
1486636457.2807968, 13, -11, 41, 20, 85, -270, -256, -189, 50, 50
1486636457.2812223, 125, -32, 41, 25, 136, -265, -250, -184, 50, 50
1486636457.295382, 61, 5, 34, 8, -71, -268, -243, -186, 50, 50
1486636457.2957814, -58, 24, 7, -21, -364, -275, -252, -206, 50, 50
1486636457.2972383, -81, 12, 18, -4, -165, -271, -253, -200, 50, 50
1486636457.3103926, 33, -19, 29, 17, 93, -269, -258, -185, 50, 50
1486636457.3110976, 129, -21, 44, 15, 133, -260, -245, -183, 50, 50
1486636457.3126354, 52, 4, 34, 4, -122, -275, -248, -193, 50, 50
1486636457.3204448, -59, 27, 17, -18, -336, -276, -248, -207, 50, 50
1486636457.3267267, -63, 11, 19, -2, -115, -271, -254, -202, 50, 50
1486636457.3283365, 53, -28, 28, 17, 112, -270, -256, -189, 50, 50
1486636457.3343203, 136, -16, 38, 19, 84, -270, -255, -179, 50, 50
1486636457.334426, 27, 10, 28, 7, -185, -263, -247, -189, 50, 50
1486636457.3344538, -84, 22, 6, -17, -303, -267, -252, -206, 50, 50
1486636457.3479154, -66, 4, 10, -1, -114, -270, -250, -194, 50, 50
1486636457.3486357, 72, -19, 40, 26, 125, -258, -250, -177, 50, 50
1486636457.349762, 131, -10, 43, 18, 83, -255, -235, -183, 50, 50
1486636457.3553863, 43, 17, 22, -7, -237, -257, -194, -183, 50, 50
1486636457.3558464, -82, 32, 3, -28, -346, -253, -205, -211, 50, 50
1486636457.3578072, -45, 1, 22, 3, -112, -255, -212, -189, 50, 50
1486636457.3713264, 84, -23, 31, 20, 103, -254, -188, -168, 50, 50
1486636457.3724544, 113, -18, 45, 18, -50, -255, -140, -168, 50, 50
1486636457.3725123, 10, 21, 11, -14, -399, -499, -247, -189, 50, 50
1486636457.3857687, -99, 28, 4, -17, -500, -266, -74, -205, 50, 50
1486636457.3865867, -31, -1, 26, -2, -309, -262, -59, -195, 50, 50
1486636457.3867986, 87, -30, 34, 24, -89, -266, -33, -191, 50, 50
1486636457.3928804, 114, -11, 32, 6, -327, -273, -10, -211, 50, 50
1486636457.3936183, 1, 17, 11, -18, -654, -283, 12, -214, 50, 50
1486636457.3941107, -105, 31, 4, -14, -649, -284, 25, -220, 50, 50
1486636457.4135785, -11, -3, 21, 4, -395, -272, 46, -196, 50, 50
1486636457.4136558, 101, -17, 46, 21, -198, -255, 64, -180, 50, 50
1486636457.4136817, 106, -3, 39, 6, -446, -259, 74, -166, 50, 50
1486636457.4236808, -39, 19, 4, -13, -692, -265, 69, -188, 50, 50
1486636457.4237435, -97, 16, 14, -10, -640, -269, 58, -191, 50, 50
1486636457.4246807, -4, -2, 28, 5, -344, -262, -59, -195, 50, 50
1486636457.4303818, 116, -28, 6144, 7168, 1535, 12031, 26112, 32767, 50, 50
1486636457.431131, -49, 21, 2, -12, -643, -267, 45, -163, 50, 50
1486636457.4322166, 1, 17, 11, -18, -654, -283, 12, -214, 50, 50
1486636457.4455218, 5, -5, 40, 16, -288, -277, 17, -148, 50, 50
1486636457.4460685, 117, -28, 36, 31, -214, -276, 14, -196, 50, 50
1486636457.4605083, 66, 7, 25, 11, 14957, -16400, 7167, 3840, 50, 50
1486636457.4611661, -89, 16, 14, -11, -502, -276, 20, -153, 50, 50
1486636457.4679146, 11, -10, 36, 18, -207, -264, 17, -138, 50, 50
1486636457.4681492, 134, -16, 40, 26, -184, -261, 22, -130, 50, 50
1486636457.4692094, 56, 9, 36, -5, -446, -265, 29, -146, 50, 50
1486636457.4698782, 182, -28, 6144, 7168, 1535, 12031, 26112, 32767, 50, 50
1486636457.4828703, -74, 9, 17, -11, -456, -256, 30, -130, 50, 50
1486636457.483292, 39, -17, 28, 16, -191, -253, 28, -112, 50, 50
1486636457.4847763, 136, -17, 47, 16, -288, -277, 17, -148, 50, 50
1486636457.4978921, 48, 9, 30, 1, -472, -255, 35, -120, 50, 50
1486636457.498586, -76, 20, 3, -28, -632, -255, 31, -132, 50, 50
1486636457.5016513, -57, 15, 15, -3, -502, -276, 20, -153, 50, 50
1486636457.505334, 74, -14, 44, 19, -168, -256, 13, -115, 50, 50
1486636457.5060043, 132, -18, 46, 15, -247, -248, 30, -102, 50, 50
1486636457.507943, 34, 5, 13, -7, -446, -265, 29, -146, 50, 50
1486636457.5202844, -85, 27, 10, -29, -611, -255, 23, -123, 50, 50
1486636457.5211344, -47, 14, 20, -4, -372, -242, 26, -113, 50, 50
1486636457.5219715, 89, -15, 41, 6, -191, -253, 28, -112, 50, 50
1486636457.5354407, 122, -16, 45, 21, -264, -245, 19, -107, 50, 50
1486636457.5360973, 25, 10, 24, -13, -520, -246, 37, -115, 50, 50
1486636457.5367167, -91, 29, 7, -21, -556, -255, 31, -132, 50, 50
1486636457.5428607, -30, -4, 31, -7, -328, -238, 15, -126, 50, 50
1486636457.5435462, 94, -31, 43, 30, -93, -236, 8, -114, 50, 50
1486636457.5441432, 104, -13, 43, 8, -262, -243, 30, -102, 50, 50
1486636457.55788, -1, 20, 13, -10, -539, -239, 22, -123, 50, 50
1486636457.5585215, -98, 26, 14, -23, -548, -237, 31, -120, 50, 50
1486636457.5604935, -11, -6, 32, 1, -291, -240, 25, -110, 50, 50
1486636457.5728354, 99, -24, 38, 15, -73, -232, 29, -92, 50, 50
1486636457.5731926, 101, -15, 31, 6, -283, -234, 36, -98, 50, 50
1486636457.574249, -14, 19, 12, -15, -536, -237, 33, -119, 50, 50
1486636457.580358, -99, 17, 13, -14, -526, -240, 29, -124, 50, 50
1486636457.5810957, -13, -7, 25, 0, -233, -238, 13, -117, 50, 50
1486636457.5821815, 112, -21, 36, 20, -75, -236, 8, -114, 50, 50
1486636457.595271, 100, -2, 36, 7, -314, -238, 30, -106, 50, 50
1486636457.5961199, -30, 22, 14, -18, -548, -240, 28, -123, 50, 50
1486636457.5967042, -88, 7, -2, -15, -497, -243, 22, -124, 50, 50
1486636457.6104162, -5, -14, 33, -1, -183, -238, 13, -109, 50, 50
1486636457.6110978, 116, -34, 43, 25, -78, -227, 29, -95, 50, 50
1486636457.6117175, 89, 6, 22, 6, -316, -230, 43, -98, 50, 50
1486636457.61786, -55, 30, 18, -12, -584, -229, 40, -121, 50, 50
1486636457.6185102, -82, 18, 13, -16, -448, -238, 20, -128, 50, 50
1486636457.6199172, 14, -5, 33, 16, -167, -235, 14, -104, 50, 50
1486636457.6327438, 133, -17, 50, 24, -125, -224, 21, -99, 50, 50
1486636457.6330884, 69, 6, 34, -1, -360, -235, 21, -114, 50, 50
1486636457.634252, -64, 29, 14, -19, -575, -240, 28, -123, 50, 50
1486636457.6478546, -76, 12, 13, -9, -420, -237, 23, -120, 50, 50
1486636457.648641, 31, -14, 36, 7, -152, -242, 12, -108, 50, 50
1486636457.649648, 137, -19, 45, 9, -160, -235, 29, -95, 50, 50
1486636457.6553538, 61, 5, 35, -1, -380, -237, 31, -111, 50, 50
1486636457.6561124, -71, 32, 7, -18, -595, -240, 22, -119, 50, 50
1486636457.6565995, -73, 8, 18, -9, -391, -250, 9, -128, 50, 50
1486636457.6702359, 51, -23, 39, 18, -140, -231, 16, -96, 50, 50
1486636457.670957, 119, -23, 44, 19, -153, -229, 17, -88, 50, 50
1486636457.6734703, 36, 7, 28, 10, -420, -228, 25, -98, 50, 50
1486636457.6852682, -79, 35, 13, -31, -583, -238, 18, -115, 50, 50
1486636457.6859446, -61, 4, 23, -1, -345, -237, 8, -103, 50, 50
1486636457.686685, 65, -22, 46, 16, -106, -228, 16, -83, 50, 50
1486636457.6928675, 129, -15, 43, 13, -151, -233, 13, -88, 50, 50
1486636457.6934812, 27, 12, 27, -2, -480, -230, 18, -103, 50, 50
1486636457.6941588, -85, 25, 6, -33, -563, -239, 4, -114, 50, 50
1486636457.6945753, -40, 4, 22, -9, -391, -250, 9, -114, 50, 50
1486636457.707811, 83, -20, 52, 19, -66, -226, 6, -89, 50, 50
1486636457.7085829, 114, -19, 51, 17, -165, -231, 9, -81, 50, 50
1486636457.7107825, 21, 14, 33, 244, -420, -228, 25, -98, 50, 50
1486636457.7228253, -97, 21, 5, -17, -503, -230, 13, -103, 50, 50
1486636457.723496, -30, -12, 28, -6, -270, -228, 8, -84, 50, 50
1486636457.724558, 102, -22, 40, 26, -106, -228, 16, -83, 50, 50
1486636457.7303734, 116, -17, 51, 21, -222, -219, 17, -81, 50, 50
1486636457.731096, 12, 18, 23, -20, -507, -227, 13, -103, 50, 50
1486636457.7335956, -96, 20, 6, -7, -563, -239, 4, -114, 50, 50
1486636457.7531004, -11, 2, 28, -1, -258, -217, 7, -92, 50, 50
1486636457.753634, 99, -19, 45, 15, -47, -220, 3, -73, 50, 50
1486636457.753907, 109, -7, 42, 13, -232, -231, 9, -81, 50, 50
1486636457.7549562, -26, 21, 9, -13, -488, -224, 19, -91, 50, 50
1486636457.7656558, -101, 27, 9, -21, -462, -223, 7, -98, 2334, 142
1486636457.7657306, 1, 0, 30, 1, -202, -216, 8, -84, 2334, 142
1486636457.7679367, 101, -22, 45, 28, -57, -209, 3, -70, 2334, 142
1486636457.7685993, 91, -7, 29, 14, -235, -212, 13, -76, 2334, 142
1486636457.7692223, -51, 22, 14, -24, -504, -217, 13, -91, 2334, 142
1486636457.7831318, -90, 18, 15, -11, -410, -219, 13, -92, 2334, 142
1486636457.7836397, 5, -11, 34, 14, -149, -213, 2, -79, 2334, 142
1486636457.7842393, 120, -35, 50, 38, -57, -220, 3, -73, 2334, 142
1486636457.7978756, 78, 4, 37, 16, -258, -210, 18, -76, 2334, 142
1486636457.7984972, -57, 32, 13, -14, -512, -211, 19, -86, 2334, 142
1486636457.799152, -84, 14, 15, -17, -400, -211, 15, -98, 2334, 142
1486636457.8053856, 6, -20, 36, 19, -129, -214, 4, -78, 2334, 142
1486636457.8061337, 129, -28, 51, 28, -37, -202, 14, -66, 2334, 142
1486636457.8075762, 53, -1, 31, 1, -305, -208, 18, -73, 2334, 142
1486636457.8201659, -61, 20, 10, -27, -555, -208, 20, -95, 2334, 142
1486636457.8210683, -78, 7, 17, -8, -367, -207, 11, -90, 2334, 142
1486636457.8220022, 37, -19, 37, 19, -82, -197, 11, -72, 2334, 142
1486636457.8428876, 140, -19, 39, 19, -62, -199, 4, -72, 2334, 142
1486636457.8435495, 53, 10, 33, 2, -340, -199, 14, -80, 2334, 142
1486636457.844273, -60, 27, 5, -24, -543, -202, 15, -97, 2334, 142
1486636457.845356, -66, 0, 15, -11, -305, -202, 4, -90, 2334, 142
1486636457.8503315, 54, -22, 28, 4, -79, -193, 6, -69, 2334, 142
1486636457.8508954, 131, -15, 33, 14, -80, -188, 10, -68, 2334, 142
1486636457.8577762, 43, 6, 19, 0, -400, -197, 25, -81, 2334, 142
1486636457.8584864, -86, 26, 1, -18, -492, -195, 26, -86, 2334, 142
1486636457.8598409, -60, 5, 8, -4, -299, -207, 11, -90, 2334, 142
1486636457.8729503, 76, -22, 37, 13, -45, -193, 9, -76, 2334, 142
1486636457.8735976, 125, -22, 42, 24, -125, -187, 21, -73, 2334, 142
1486636457.8742456, 31, 8, 25, -4, -450, -186, 27, -80, 2334, 142
1486636457.88123, -91, 26, 7, -15, -501, -196, 18, -106, 2334, 142
1486636457.8812988, -49, 7, 14, 6, -300, -194, 10, -99, 2334, 142
1486636457.8818886, 93, -17, 42, 19, -55, -186, 15, -86, 2334, 142
1486636457.8954062, 104, -14, 39, 13, -176, -179, 24, -83, 2334, 142
1486636457.8961508, 14, 12, 16, -9, -436, -183, 29, -93, 2334, 142
1486636457.896759, -107, 26, 14, -15, -482, -191, 26, -105, 2334, 142
1486636457.9104786, -21, 2, 19, -13, -240, -184, 8, -101, 2334, 142
1486636457.911089, 92, -24, 29, 27, -48, -186, 6, -87, 2334, 142
1486636457.911761, 108, -5, 32, 17, -191, -180, 23, -82, 2334, 142
1486636457.9142532, -5, 8, 25, -4, -450, -186, 27, -95, 2334, 142
1486636457.9180045, -97, 22, 10, -13, -441, -181, 19, -107, 2334, 142
1486636457.9195035, -13, -3, 33, 7, -205, -179, 10, -87, 2334, 142
1486636457.9327943, 105, -25, 39, 31, -29, -174, 17, -71, 2334, 142
1486636457.9334784, 100, -4, 31, 9, -240, -173, 25, -73, 2334, 142
1486636457.9341588, -18, 17, 15, -10, -503, -187, 24, -95, 2334, 142
1486636457.9478302, -102, 14, 16, -8, -427, -186, 18, -99, 2334, 142
1486636457.9482837, -3, -1, 22, 4, -155, -178, 16, -82, 2334, 142
1486636457.949195, 112, -24, 44, 26, -10, -175, 14, -69, 2334, 142
1486636457.9500673, 88, -5, 32, 17, -191, -180, 23, -82, 2334, 142
1486636457.9553568, -48, 22, 14, -14, -482, -180, 27, -101, 2334, 142
1486636457.9559133, -93, 23, 5, -11, -380, -188, 4, -100, 2334, 142
1486636457.9578764, 15, -14, 30, 6, -93, -179, 10, -87, 2334, 142
1486636457.970288, 133, -21, 45, 21, -50, -182, -11, -80, 2334, 142
1486636457.9706216, 79, -3, 27, 8, -235, -179, 4, -81, 2334, 142
1486636457.9722576, -55, 23, 1, -24, -515, -184, 24, -95, 2334, 142
1486636457.985361, -80, 6, 8, -14, -352, -188, 2, -95, 2334, 142
1486636457.9860234, 27, -20, 38, 21, -92, -181, -3, -83, 2334, 142
1486636457.9864728, 145, -19, 43, 32, -38, -181, 3, -73, 2334, 142
1486636457.9928715, 57, 7, 19, 1, -294, -177, 13, -93, 2334, 142
1486636457.9936354, -68, 26, 13, -20, -520, -178, 1, -128, 2334, 142
1486636457.9953396, -75, 5, 7, -4, -306, -170, 4, -100, 2334, 142
1486636458.0078504, 46, -21, 24, 13, -42, -144, 21, -52, 2334, 142
1486636458.0086074, 137, -16, 29, 12, -70, -119, 52, -35, 2334, 142
1486636458.0095007, 49, 3, 25, -13, -298, -100, 71, -81, 2334, 142
1486636458.02291, -76, 17, 6, -14, -441, -78, 90, -34, 2334, 142
1486636458.0236325, -55, 6, 17, -4, -214, -41, 113, -4, 2334, 142
1486636458.0246217, 67, -26, 31, 18, 43, 6, 130, 31, 2334, 142
1486636458.0303724, 130, -14, 28, 13, 21, 56, 181, 62, 2334, 142
1486636458.0310507, 21, 6, 20, -4, -250, 91, 219, 71, 2334, 142
1486636458.0338864, -83, 27, -6, -14, -272, 119, 240, 83, 2334, 142
1486636458.045502, -44, -5, 13, -8, -76, 163, 261, 114, 2334, 142
1486636458.046134, 86, -30, 29, 24, 163, 203, 288, 149, 2334, 142
1486636458.0497026, 119, -23, 20, 16, 136, 233, 52, -35, 2334, 142
1486636458.0604317, 28, 15, 2, -14, -135, 259, 328, 159, 2334, 142
1486636458.0611243, -89, 28, 10, -9, -167, 279, 334, 168, 2334, 142
1486636458.062473, -28, -3, 16, 1, 60, 316, 96, -4, 2334, 142
1486636458.0678802, 87, -27, 36, 25, 325, 350, 365, 238, 2334, 142
1486636458.0686615, 107, -5, 41, 17, 192, 381, 397, 255, 2334, 142
1486636458.0689476, 5, 20, 24, -14, -50, 397, 416, 255, 2334, 142
1486636458.0829031, -105, 22, 8, -8, -25, 411, 416, 253, 2334, 142
1486636458.0836046, -20, -6, 22, 2, 207, 432, 419, 276, 2334, 142
1486636458.085653, 93, -29, 30, 27, 396, 203, 288, 149, 2334, 142
1486636458.0978985, 100, -5, 39, 9, 244, 448, 439, 290, 2334, 142
1486636458.098617, -26, 24, 17, -5, 20, 435, 417, 264, 2334, 142
1486636458.1020808, -95, 19, 7, -16, 36, 426, 409, 255, 2334, 142
1486636458.1052654, -1, -1, 23, 2, 287, 435, 407, 268, 2334, 142
1486636458.1059487, 113, -29, 40, 27, 396, 438, 397, 276, 2334, 142
1486636458.1072028, 89, 3, 39, 19, 226, 433, 406, 269, 2334, 142
1486636458.1204493, -52, 26, 3, -11, 17, 435, 413, 262, 2334, 142
1486636458.1208184, -93, 22, 17, -9, 78, 435, 406, 252, 2334, 142
1486636458.121666, -2, -11, 22, 4, 321, 439, 396, 255, 2334, 142
1486636458.1353767, 116, -20, 36, 29, 404, 436, 390, 263, 2334, 142
1486636458.136137, 71, 3, 28, 5, 238, 427, 398, 248, 2334, 142
1486636458.1363862, -58, 21, 6, -22, 243, 435, 417, 264, 2334, 142
1486636458.1428723, -79, 14, 8, -9, 119, 433, 392, 235, 2334, 142
1486636458.143526, 11, -26, 24, 3, 348, 432, 385, 249, 2334, 142
1486636458.144177, 124, -32, 37, 12, 400, 439, 396, 259, 2334, 142
1486636458.1579077, 54, 3, 16, 1, 193, 431, 400, 247, 2334, 142
1486636458.1585162, -66, 14, 15, -22, -37, 431, 402, 232, 2334, 142
1486636458.1592522, -71, 1, 16, -7, 136, 435, 395, 231, 2334, 142
1486636458.1615438, -2, -11, 22, 4, 321, 439, 396, 255, 2334, 142
1486636458.1728957, 131, -18, 42, 7, 353, 424, 390, 248, 2334, 142
1486636458.1736548, 42, 0, 20, -12, 130, 428, 400, 232, 2334, 142
1486636458.1741638, -58, 21, 6, -22, -13, 423, 396, 233, 2334, 142
1486636458.180507, -62, 10, 18, -8, 146, 422, 398, 226, 2334, 142
1486636458.1811278, 67, -21, 42, 10, 383, 429, 390, 244, 2334, 142
1486636458.183821, 128, -10, 33, 12, 400, 439, 396, 259, 2334, 142
1486636458.1952684, 27, 8, 23, -3, 115, 431, 393, 229, 2334, 142
1486636458.1960595, -87, 33, -1, -31, -3, 419, 384, 219, 2334, 142
1486636458.198008, -50, 2, 22, -5, 136, 435, 395, 231, 2334, 142
1486636458.2104266, 73, -25, 33, 16, 419, 422, 374, 247, 2334, 142
1486636458.211111, 106, -12, 39, 13, 342, 424, 384, 254, 2334, 142
1486636458.2122958, 19, 14, 22, -12, 130, 428, 400, 232, 2334, 142
1486636458.2180336, -92, 27, -1, -29, 18, 416, 392, 227, 2334, 142
1486636458.2189298, -30, -11, 18, -9, 194, 420, 385, 236, 2334, 142
1486636458.223322, 83, -30, 38, 18, 437, 423, 390, 244, 2334, 142
1486636458.2330563, 106, -8, 39, 12, 289, 422, 388, 243, 2334, 142
1486636458.233925, 5, 11, 18, -19, 50, 421, 389, 225, 2334, 142
1486636458.2344728, -105, 23, 1, -14, 24, 414, 382, 219, 2334, 142
1486636458.2479284, -22, -5, 27, -7, 269, 414, 374, 235, 2334, 142
1486636458.2489073, 97, -16, 41, 18, 422, 416, 382, 250, 2334, 142
1486636458.2499852, 108, -7, 38, 6, 237, 412, 391, 236, 2334, 142
1486636458.2554564, -20, 18, 15, -12, 48, 417, 393, 222, 2334, 142
1486636458.256379, -104, 16, 13, -21, 59, 405, 380, 212, 2334, 142
1486636458.258341, -14, -3, 24, -4, 272, 420, 385, 236, 2334, 142
1486636458.270446, 105, -18, 43, 12, 415, 420, 386, 234, 2334, 142
1486636458.2714038, 86, -1, 31, 6, 225, 418, 401, 235, 2334, 142
1486636458.2716851, -48, 17, 8, -16, 12, 407, 397, 225, 2334, 142
1486636458.2863038, -95, 3, 0, -23, 63, 411, 399, 212, 2334, 142
1486636458.2863734, 3, -9, 24, 3, 314, 414, 391, 232, 2334, 142
1486636458.291547, 116, -33, 33, 25, 393, 420, 399, 239, 2334, 142
1486636458.2929003, 74, -4, 28, -1, 228, 410, 400, 223, 2334, 142
1486636458.2939394, -53, 25, 9, -15, -31, 406, 400, 207, 2334, 142
1486636458.2959952, -84, 13, 10, -21, 73, 400, 386, 206, 2334, 142
1486636458.3087087, 19, -13, 34, 15, 336, 405, 375, 219, 2334, 142
1486636458.308963, 129, -38, 29, 19, 382, 407, 377, 229, 2334, 142
1486636458.309, 55, -5, 27, 5, 190, 400, 385, 221, 2334, 142
1486636458.3228095, -70, 21, 6, -18, -22, 402, 393, 211, 2334, 142
1486636458.3235493, -80, 4, 19, -7, 110, 405, 392, 213, 2334, 142
1486636458.324639, 27, -17, 45, 20, 326, 414, 391, 232, 2334, 142
1486636458.3303928, 120, -27, 47, 24, 380, 398, 374, 231, 2334, 142
1486636458.331087, 34, 1, 28, 2, 144, 397, 388, 223, 2334, 142
1486636458.3328083, -66, 25, 8, -20, -25, 406, 400, 207, 2334, 142
1486636458.3453798, -64, 2, 0, -8, 140, 378, 365, 215, 2334, 142
1486636458.3461366, 42, -31, 35, 15, 378, 382, 359, 228, 2334, 142
1486636458.3485632, 122, -26, 40, 16, 372, 383, 362, 229, 2334, 142
1486636458.3679638, 36, 5, 33, 0, 101, 381, 370, 218, 2334, 142
1486636458.3687997, -77, 24, -3, -18, -12, 373, 366, 204, 2334, 142
1486636458.3693485, -71, 2, 13, -10, 164, 366, 346, 213, 2334, 142
1486636458.3704886, 71, -23, 31, 12, 369, 369, 344, 221, 2334, 142
1486636458.375528, 123, -19, 28, 14, 308, 380, 349, 225, 2334, 142
1486636458.3759365, 22, 6, 18, -7, 67, 360, 349, 202, 2334, 142
1486636458.384443, -94, 27, 6, -20, -3, 364, 354, 200, 2334, 142
1486636458.3845427, -46, -8, 14, -1, 169, 359, 336, 201, 2334, 142
1486636458.3845694, 86, -25, 30, 20, 386, 382, 359, 228, 2334, 142
1486636458.3979404, 110, -17, 36, 10, 304, 365, 339, 212, 2334, 142
1486636458.398251, 14, 16, 11, -11, 52, 355, 338, 188, 2334, 142
1486636458.3991857, -107, 25, 8, -22, -4, 357, 331, 177, 2334, 142
1486636458.405369, -24, -7, 18, 2, 203, 358, 325, 189, 2334, 142
1486636458.40626, 95, -31, 33, 29, 416, 355, 327, 206, 2334, 142
1486636458.4067771, 101, -13, 31, 11, 283, 364, 341, 199, 2334, 142
1486636458.410417, -9, 6, 18, -7, 67, 360, 349, 202, 2334, 142
1486636458.4205716, -96, 25, 9, -15, 29, 358, 337, 188, 2334, 142
1486636458.4214385, -15, -11, 21, -2, 219, 349, 326, 188, 2334, 142
1486636458.4218142, 105, -24, 30, 20, 386, 363, 330, 211, 2334, 142
1486636458.4354575, 95, -3, 31, 9, 233, 354, 336, 194, 2334, 142
1486636458.4366097, -25, 29, 8, -19, 11, 343, 336, 178, 2334, 142
1486636458.4375873, -98, 20, 8, -22, -4, 357, 331, 177, 2334, 142
1486636458.4579523, -6, -1, 24, 13, 303, 349, 326, 187, 2334, 142
1486636458.4583611, 100, -26, 31, 24, 395, 348, 324, 197, 2334, 142
1486636458.4595306, 89, -1, 28, 0, 283, 364, 341, 199, 2334, 142
1486636458.460426, -49, 26, 19, -11, 3, 345, 325, 173, 2334, 142
1486636458.4660966, -94, 16, 14, -14, 83, 343, 317, 168, 2334, 142
1486636458.4738595, -2, -10, 35, 6, 73, 349, 326, 188, 2334, 142
1486636458.4739273, 114, -35, 35, 24, 384, 337, 311, 186, 2334, 142
1486636458.4743118, 71, 3, 16, -1, 222, 337, 320, 182, 2334, 142
1486636458.4745574, -60, 22, 8, -16, -25, 324, 336, 178, 2334, 142
1486636458.480448, -84, 11, 16, -15, 83, 329, 315, 171, 2334, 142
1486636458.4814396, 24, -16, 27, 8, 326, 323, 303, 189, 2334, 142
1486636458.4840858, 120, -28, 36, 18, 383, 333, 311, 194, 2334, 142
1486636458.4954686, 35, -3, 30, 1, 176, 332, 324, 183, 2334, 142
1486636458.496448, -77, 24, 10, -18, -31, 322, 312, 166, 2334, 142
1486636458.4994214, -75, 7, 15, -5, 119, 325, 308, 174, 2334, 142
1486636458.511218, 30, -32, 42, 14, 372, 329, 299, 184, 2334, 142
1486636458.5144646, 128, -18, 41, 21, 359, 331, 304, 188, 2334, 142
1486636458.5145178, 32, -1, 26, -2, 99, 337, 320, 182, 2334, 142
1486636458.5182686, -72, 15, 10, -14, -49, 327, 314, 155, 2334, 142
1486636458.5183334, -66, -2, 18, -4, 141, 324, 311, 175, 2334, 142
1486636458.5189571, 57, -27, 27, 14, 386, 331, 303, 189, 2334, 142
1486636458.5362604, 117, -24, 30, 16, 345, 337, 316, 183, 1418, 110
1486636458.5407746, 33, 7, 20, -16, 82, 328, 316, 170, 1418, 110
1486636458.542033, -91, 29, 5, -21, 9, 325, 310, 166, 1418, 110
1486636458.54796, -49, -2, 14, -8, 171, 327, 296, 163, 1418, 110
1486636458.5489185, 74, -31, 19, 12, 408, 331, 302, 191, 1418, 110
1486636458.5500486, 123, -16, 37, 5, 313, 336, 313, 188, 1418, 110
1486636458.5555463, 34, 15, 14, -12, 64, 323, 310, 167, 1418, 110
1486636458.5559802, -78, 22, 5, -24, 11, 314, 304, 155, 1418, 110
1486636458.5578077, -44, -5, 21, 1, 182, 323, 297, 165, 1418, 110
1486636458.572274, 88, -31, 42, 28, 415, 321, 302, 166, 1418, 110
1486636458.5723665, 115, -23, 27, 13, 279, 321, 302, 168, 1418, 110
1486636458.5741007, 10, 17, 19, -13, 39, 328, 316, 170, 1418, 110
1486636458.5852342, -99, 16, 3, -21, 12, 312, 302, 142, 1418, 110
1486636458.5859838, -22, -11, 17, -8, 220, 315, 291, 155, 1418, 110
1486636458.5879245, 96, -24, 34, 14, 409, 331, 302, 191, 1418, 110
1486636458.5940945, 112, -21, 18, 6, 260, 324, 306, 171, 1418, 110
1486636458.5967507, -12, 20, 5, -21, 13, 312, 299, 148, 1418, 110
1486636458.596819, -104, 14, 12, -16, 37, 315, 297, 155, 1418, 110
1486636458.6080222, -9, -18, 31, 3, 260, 316, 277, 157, 1418, 110
1486636458.6084611, 99, -36, 36, 28, 428, 322, 283, 174, 1418, 110
1486636458.6123366, 91, -16, 21, 5, 256, 314, 287, 165, 1418, 110
1486636458.6229918, -36, 17, 6, -15, 10, 302, 283, 140, 1418, 110
1486636458.62376, -92, 12, 12, -18, 42, 300, 275, 138, 1418, 110
1486636458.6247633, -6, -19, 19, 1, 58, 315, 291, 155, 1418, 110
1486636458.6304834, 109, -35, 36, 21, 402, 308, 277, 171, 1418, 110
1486636458.631436, 76, 8, 26, 2, 239, 305, 286, 162, 1418, 110
1486636458.6334763, -47, 19, 13, -21, -6, 307, 294, 154, 1418, 110
1486636458.6455088, -89, 8, 8, -7, 82, 302, 285, 156, 1418, 110
1486636458.6461983, -1, -11, 22, 6, 323, 307, 277, 175, 1418, 110
1486636458.6470275, 128, -27, 39, 17, 387, 315, 289, 185, 1418, 110
1486636458.6503637, 63, -16, 21, 5, 256, 314, 287, 165, 1418, 110
1486636458.6614392, -69, 15, 0, -19, -44, 310, 293, 154, 1418, 110
1486636458.6650505, -75, 3, 6, -12, 142, 307, 279, 151, 1418, 110
1486636458.6651194, 22, -32, 19, 1, 314, 302, 265, 154, 1418, 110
1486636458.6679816, 135, -28, 29, 16, 357, 306, 271, 170, 1418, 110
1486636458.668952, 46, 2, 21, 0, 132, 296, 274, 155, 1418, 110
1486636458.6700976, -69, 25, 4, -27, -6, 307, 294, 154, 1418, 110
1486636458.6830008, -68, 9, 11, -5, 144, 294, 270, 161, 1418, 110
1486636458.6839173, 45, -28, 25, 18, 349, 305, 271, 181, 1418, 110
1486636458.687889, 129, -20, 37, 26, 350, 315, 289, 185, 1418, 110
1486636458.6979866, 25, 0, 20, 6, 122, 293, 281, 163, 1418, 110
1486636458.6989257, -84, 26, 8, -26, -12, 287, 267, 153, 1418, 110
1486636458.7014585, -65, 3, 18, -4, 160, 285, 251, 151, 1418, 110
1486636458.7055273, 62, -28, 35, 16, 375, 303, 265, 165, 1418, 110
1486636458.7062962, 115, -28, 33, 12, 326, 297, 264, 164, 1418, 110
1486636458.7084303, 23, 2, 25, 250, 132, 296, 274, 155, 1418, 110
1486636458.7204566, -91, 24, 8, -19, -4, 279, 264, 139, 1418, 110
1486636458.7214558, -45, 1, 16, 5, 162, 285, 257, 150, 1418, 110
1486636458.7218657, 81, -27, 29, 18, 400, 305, 271, 181, 1418, 110
1486636458.7355182, 120, -15, 30, 18, 336, 288, 257, 164, 1418, 110
1486636458.7363753, 9, 11, 10, -8, 60, 287, 263, 149, 1418, 110
1486636458.7371943, -98, 25, 6, -16, 15, 270, 267, 153, 1418, 110
1486636458.7456205, -40, -22, 14, -2, 197, 273, 241, 135, 1418, 110
1486636458.7467399, 83, -29, 24, 20, 436, 271, 241, 151, 1418, 110
1486636458.74681, 98, -19, 26, 5, 277, 278, 270, 164, 1418, 110
1486636458.7579188, -8, 9, 10, -16, 0, 269, 285, 163, 1418, 110
1486636458.758625, -103, 28, 2, -13, -7, 244, 237, 117, 1418, 110
1486636458.7608669, -17, -7, 24, 2, 234, 220, 197, 102, 1418, 110
1486636458.772891, 88, -20, 34, 22, 374, 197, 183, 108, 1418, 110
1486636458.7736576, 90, -8, 38, 0, 161, 171, 185, 87, 1418, 110
1486636458.7750678, -25, 26, 21, -14, -104, 287, 263, 149, 1418, 110
1486636458.7805173, -96, 11, 15, -15, -75, 104, 128, 21, 1418, 110
1486636458.7814007, -7, -14, 23, 8, 146, 76, 101, 18, 1418, 110
1486636458.781771, 101, -31, 42, 21, 222, 306, 241, 151, 1418, 110
1486636458.7963867, 97, 9, 23, 2, 10, 23, 80, -3, 1418, 110
1486636458.797489, -37, 22, 8, -18, -223, -3, 69, -22, 1418, 110
1486636458.7975726, -84, 10, 5, -10, -147, -4, 60, -26, 1418, 110
1486636458.8104453, -3, -9, 24, 12, 123, -4, 57, -7, 1418, 110
1486636458.811082, 119, -24, 41, 26, 184, 6, 67, 3, 1418, 110
1486636458.8129587, 74, 8, 24, 9, 7, -4, 67, 1, 1418, 110
1486636458.8180447, -58, 25, 3, -11, -250, -9, 57, -27, 1418, 110
1486636458.8189719, -83, 20, 11, -8, -128, -9, 58, -18, 1418, 110
1486636458.8202038, 14, -19, 28, 22, 138, -6, 45, -9, 1418, 110
1486636458.8329458, 123, -27, 40, 13, 197, -5, 46, 0, 1418, 110
1486636458.8339043, 61, 4, 25, 0, -9, -2, 52, -10, 1418, 110
1486636458.8342853, -58, 30, 9, -17, -258, -9, 69, -22, 1418, 110
1486636458.8489769, -76, 14, 9, -12, -92, -9, 52, -18, 1418, 110
1486636458.849993, 37, -23, 31, 16, 181, 4, 55, -1, 1418, 110
1486636458.8500595, 124, -23, 37, 14, 164, 4, 58, 2, 1418, 110
1486636458.8556147, 49, 8, 27, 0, -60, 4, 63, -11, 1418, 110
1486636458.8563676, -68, 31, 5, -18, -250, -6, 61, -21, 1418, 110
1486636458.8573582, -70, 1, 25, -4, -33, -8, 42, -19, 1418, 110
1486636458.8714225, 53, -23, 24, 27, 178, -4, 40, -3, 1418, 110
1486636458.8728101, 127, -15, 40, 18, 161, -1, 51, 1, 1418, 110
1486636458.872879, 39, 0, 14, 1, -118, -7, 49, -10, 1418, 110
1486636458.885407, -86, 21, 1, -22, -240, -13, 50, -26, 1418, 110
1486636458.886248, -64, 7, 17, -3, -31, -7, 45, -19, 1418, 110
1486636458.8870783, 65, -32, 32, 21, 220, 4, 49, 2, 1418, 110
1486636458.8930185, 121, -21, 30, 21, 118, 4, 60, 2, 1418, 110
1486636458.893933, 13, -4, 7, -3, -137, 3, 76, -4, 1418, 110
1486636458.89427, -88, 32, -1, -18, -204, -6, 57, -23, 1418, 110
1486636458.8981802, -31, -2, 23, -4, -33, -8, 42, -19, 1418, 110
1486636458.9080067, 92, -26, 33, 24, 225, 6, 43, -1, 1418, 110
1486636458.908733, 101, -22, 39, 19, 116, 0, 49, -4, 1418, 110
1486636458.9145331, 11, 3, 13, 1, -118, -7, 49, -14, 1418, 110
1486636458.9238906, -102, 15, 8, -14, -182, -9, 55, -19, 1418, 110
1486636458.9249609, -25, -1, 26, -4, 28, -4, 49, -7, 1418, 110
1486636458.9250014, 95, -34, 35, 31, 220, 4, 49, 2, 1418, 110
1486636458.930509, 92, -14, 23, 15, 68, -1, 59, 1, 1418, 110
1486636458.9314435, -16, 17, 6, -16, -189, -12, 45, -30, 1418, 110
1486636458.9318395, -97, 26, 8, -18, -147, -6, 57, -23, 1418, 110
1486636458.9463553, -21, -20, 25, 13, 91, -5, 40, -7, 1418, 110
1486636458.9468281, 99, -28, 28, 28, 256, 2, 46, 8, 1418, 110
1486636458.9468644, 94, -4, 30, 11, 50, -2, 53, -4, 1418, 110
1486636458.9605289, -32, 18, -1, -21, -201, -6, 56, -24, 1418, 110
1486636458.9610896, -98, 15, 3, -17, -146, -6, 50, -23, 1418, 110
1486636458.9649777, 3, -4, 29, 8, 134, 4, 47, 1, 1418, 110
1486636458.967969, 106, -30, 36, 16, 266, 23, 57, 18, 1418, 110
1486636458.9689956, 79, 1, 24, 8, 49, 17, 67, 1, 1418, 110
1486636458.9703748, -42, 22, 16, -10, -185, -12, 45, -30, 1418, 110
1486636458.9830039, -80, 16, 13, -10, -99, 8, 56, -11, 1418, 110
1486636458.983436, 4, -14, 28, 15, 170, 11, 46, 0, 1418, 110
1486636458.9847672, 124, -33, 34, 25, 233, 14, 46, 8, 1418, 110
1486636458.9979515, 57, -1, 32, 10, 48, 18, 60, 5, 1418, 110
1486636458.9988544, -62, 25, 8, -21, -210, 8, 62, -5, 1418, 110
1486636459.0036178, -73, 15, 19, -9, -74, 9, 44, -23, 1418, 110
1486636459.0064046, 22, -25, 26, 14, 184, 11, 47, 6, 1418, 110
1486636459.0092216, 128, -25, 28, 17, 224, 16, 46, 12, 1418, 110
1486636459.0092897, 45, 3, 21, 10, -6, 15, 62, 1, 1418, 110
1486636459.0242546, -59, 19, 10, -21, -228, 5, 56, -6, 1418, 110
1486636459.0282998, -67, 6, 20, 0, -39, 6, 48, 4, 1418, 110
1486636459.0292575, 51, -22, 27, 6, 219, 16, 51, 20, 1418, 110
1486636459.0354912, 131, -19, 33, 24, 190, 18, 49, 23, 1418, 110
1486636459.0364847, 41, 4, 24, -6, -99, 20, 55, 5, 1418, 110
1486636459.0373828, -77, 23, 5, -5, -218, 8, 61, -5, 1418, 110
1486636459.0430682, -64, -1, 22, 9, 12, 17, 51, -1, 1418, 110
1486636459.044002, 60, -23, 32, 20, 211, 16, 46, 10, 1418, 110
1486636459.0446773, 125, -14, 45, 20, 174, 16, 49, 11, 1418, 110
1486636459.0579305, 38, 18, 30, 10, -105, 18, 64, -1, 1418, 110
1486636459.0581572, -84, 26, 6, -19, -175, 6, 48, -16, 1418, 110
1486636459.0622718, -45, 2, 16, -1, 8, 9, 48, 4, 1418, 110
1486636459.0740077, 79, -23, 43, 15, 258, 21, 41, 6, 1418, 110
1486636459.0740829, 123, -14, 34, 19, 144, 13, 45, 8, 1418, 110
1486636459.0751052, 22, 18, 15, -5, -139, 8, 55, 5, 1418, 110
1486636459.0807443, -93, 23, 0, -8, -150, 9, 47, -10, 1418, 110
1486636459.081325, -21, 3, 29, 2, 37, 7, 37, -2, 1418, 110
1486636459.0822349, 97, -22, 35, 19, 262, 16, 41, 10, 1418, 110
1486636459.095739, 102, -10, 37, 0, 122, 14, 49, 16, 1418, 110
1486636459.0962527, -2, 22, 6, -13, -140, 6, 48, 0, 1418, 110
1486636459.0964735, -90, 22, 18, -20, -154, 6, 48, -16, 1418, 110
1486636459.1104434, -11, -7, 25, 4, 83, 1, 32, -2, 1418, 110
1486636459.111289, 102, -25, 45, 32, 295, 12, 33, 7, 1418, 110
1486636459.1130955, 94, -2, 35, 10, 86, 5, 38, 1, 1418, 110
1486636459.1180372, -17, 20, 24, -16, -165, -2, 43, -19, 1418, 110
1486636459.1190238, -91, 15, 12, -9, -138, 1, 36, -22, 1418, 110
1486636459.1204398, 0, -2, 27, 9, 150, 4, 28, -5, 1418, 110
1486636459.1329253, 105, -32, 28, 17, 262, 7, 26, 5, 1418, 110
1486636459.1339293, 85, -2, 33, 9, 63, 0, 33, -7, 1418, 110
1486636459.134397, -43, 25, 15, -4, -173, 0, 45, -14, 1418, 110
1486636459.1362693, -102, 22, 18, -20, -154, 7, 43, -12, 1418, 110
1486636459.148025, 3, -15, 19, 7, 167, 9, 33, -2, 1418, 110
1486636459.1490333, 120, -28, 40, 14, 235, 3, 26, 5, 1418, 110
1486636459.1492996, 78, -2, 35, 10, 86, 5, 38, 1, 1418, 110
1486636459.1565495, -63, 17, -1, -8, -186, -4, 36, -22, 1418, 110
1486636459.1586275, -82, 10, 8, -10, -68, -4, 26, -22, 1418, 110
1486636459.1586962, 18, -10, 40, 16, 150, 4, 28, -5, 1418, 110
1486636459.1705053, 125, -27, 40, 30, 232, 7, 28, 7, 1418, 110
1486636459.1715965, 48, -2, 18, 6, 32, 4, 37, -5, 1418, 110
1486636459.1723943, -80, 21, 4, -18, -214, 0, 45, -14, 1418, 110
1486636459.1855218, -77, 21, 20, -8, -12, -6, 30, -12, 1418, 110
1486636459.1865053, 39, -15, 34, 22, 186, 2, 23, 5, 1418, 110
1486636459.1869223, 126, -23, 38, 23, 210, 6, 29, 5, 1418, 110
1486636459.192992, 43, 9, 22, 5, -27, 5, 48, 4, 1418, 110
1486636459.1940117, -78, 23, 10, -17, -188, 3, 39, -9, 1418, 110
1486636459.1970363, -77, 0, 22, 1, -18, 0, 30, 1, 1418, 110
1486636459.2080653, 60, -26, 30, 23, 233, 8, 31, 14, 1418, 110
1486636459.2087257, 117, -18, 30, 21, 183, 3, 33, 12, 1418, 110
1486636459.2101727, 32, 1, 26, -8, 179, 4, 37, -5, 1418, 110
1486636459.223043, -88, 19, 11, -20, -166, -3, 33, -17, 1418, 110
1486636459.224021, -51, -3, 21, -9, 23, -6, 15, -8, 1418, 110
1486636459.2246265, 70, -23, 32, 17, 259, 5, 23, 5, 1418, 110
1486636459.230503, 121, -14, 35, 15, 154, 2, 25, 1, 1418, 110
1486636459.2307305, 21, 18, 22, -2, -114, 2, 34, -9, 1418, 110
1486636459.2328951, -91, 32, 0, -13, -150, -1, 33, -9, 1418, 110
1486636459.2455778, -33, -3, 9, -6, 63, 5, 23, -3, 1418, 110
1486636459.2458968, 91, -17, 30, 15, 282, 5, 14, 11, 1418, 110
1486636459.2478046, 118, -8, 34, 25, 144, 3, 24, 10, 1418, 110
1486636459.2607381, 4, 18, 17, -15, -108, 2, 34, -3, 1418, 110
1486636459.261257, -109, 24, 9, -22, -114, 4, 29, -5, 1418, 110
1486636459.2637296, -10, 0, 25, 2, 83, 2, 25, 0, 1418, 110
1486636459.268045, 102, -26, 41, 20, 277, 8, 29, 17, 1418, 110
1486636459.269103, 101, -5, 29, 7, 110, 2, 30, 12, 1418, 110
1486636459.270152, -9, 23, 13, -20, -143, 2, 34, -9, 1418, 110
1486636459.2830625, -96, 20, 10, -9, -103, -5, 16, -18, 1418, 110
1486636459.2840393, -10, -9, 15, -1, 141, -12, 7, -12, 1418, 110
1486636459.2857933, 106, -24, 39, 20, 259, -6, 12, -2, 1418, 110
1486636459.2980738, 103, 7, 42, 4, 66, 1, 27, 0, 1418, 110
1486636459.2991233, -26, 39, 22, -14, -150, -6, 31, -17, 1418, 110
1486636459.299413, -82, 21, 24, -13, -81, 0, 36, -3, 1418, 110
1486636459.3055334, 5, -7, 27, 13, 165, 4, 24, 3, 1418, 110
1486636459.3064218, 123, -21, 50, 20, 244, 0, 21, 9, 1418, 110
1486636459.3102689, 81, 8, 19, 10, 65, 0, 36, 7, 1418, 110
1486636459.3205938, -53, 20, 6, -10, -186, -4, 39, -7, 1418, 110
1486636459.321529, -80, 11, 10, -20, -79, -6, 21, -9, 1418, 110
1486636459.322639, 27, -15, 23, 4, 187, 1, 15, 2, 1418, 110
1486636459.3357754, 134, -30, 28, 19, 223, 0, 15, 12, 1418, 110
1486636459.3362904, 61, -3, 19, -1, 43, 7, 32, -4, 1418, 110
1486636459.336537, -60, 28, 9, -20, -217, -6, 31, -17, 1418, 110
1486636459.3431954, -67, 14, 15, -6, -31, -10, 11, -12, 1418, 110
1486636459.343777, 36, -28, 26, 19, 214, 3, 13, 3, 1418, 110
1486636459.3463295, 132, -16, 47, 17, 228, 9, 19, 9, 1418, 110
1486636459.3580174, 49, 2, 20, 0, -20, -3, 24, -3, 1418, 110
1486636459.3590508, -62, 26, 18, -20, -202, -4, 22, -18, 1418, 110
1486636459.3593774, -66, -7, 15, -4, 8, -3, 19, -10, 1418, 110
1486636459.374052, 54, -23, 24, 11, 228, 1, 15, 12, 189, 606
1486636459.3749104, 132, -14, 50, 19, 218, 7, 25, 14, 189, 606
1486636459.3749862, 36, 7, 18, 8, -59, 3, 29, 1, 189, 606
1486636459.3805408, -75, 28, 4, -18, -170, -6, 24, -16, 189, 606
1486636459.3811574, -57, 4, 12, 1, 27, 1, 20, -3, 189, 606
1486636459.381908, 77, -25, 33, 15, 228, 0, 18, 16, 189, 606
1486636459.383197, 125, -15, 47, 17, 228, 9, 19, 12, 189, 606
1486636459.3956356, 32, 10, 28, -2, -72, -1, 29, 0, 189, 606
1486636459.3978884, -83, 34, -2, -16, -135, 3, 36, -11, 189, 606
1486636459.398133, -29, 1, 27, -4, 8, -3, 19, -10, 189, 606
1486636459.4105604, 89, -35, 36, 24, 265, 5, 20, 10, 189, 606
1486636459.410906, 118, -20, 40, 11, 171, 9, 27, 6, 189, 606
1486636459.4163105, -1, 10, 11, -19, -104, 3, 29, 1, 189, 606
1486636459.419086, -92, 26, 16, -13, -147, -9, 18, -13, 189, 606
1486636459.419155, -22, -8, 26, 2, 62, -3, 10, -5, 189, 606
1486636459.4199648, 93, -26, 37, 28, 296, -4, 16, 16, 189, 606
1486636459.4366684, 108, -7, 28, 12, 99, -4, 19, 4, 189, 606
1486636459.437544, -17, 23, 15, -18, -143, -14, 23, -12, 189, 606
1486636459.4376225, -98, 25, 5, -15, -104, -12, 18, -21, 189, 606
1486636459.4481046, -15, -6, 12, 4, 117, -18, 5, -14, 189, 606
1486636459.4491131, 95, -27, 33, 19, 258, -7, 17, 4, 189, 606
1486636459.4498672, 103, -3, 23, 10, 67, 9, 27, 6, 189, 606
1486636459.4556892, -35, 24, 12, -24, -163, -7, 30, -15, 189, 606
1486636459.4565291, -97, 18, 6, -8, -99, -3, 25, -8, 189, 606
1486636459.4578485, -7, -9, 27, 7, 175, 2, 10, -5, 189, 606
1486636459.4704738, 117, -24, 36, 29, 264, 3, 21, 15, 189, 606
1486636459.4714892, 78, -4, 23, 5, 82, 1, 31, 4, 189, 606
1486636459.472351, -57, 21, 1, -21, -187, -2, 16, -26, 189, 606
1486636459.4855838, -89, 9, 5, -15, -55, -6, 16, -13, 189, 606
1486636459.4858823, 7, -14, 20, 10, 191, -2, -1, -4, 189, 606
1486636459.4865012, 123, -32, 39, 18, 269, 5, 12, 2, 189, 606
1486636459.4930642, 55, 8, 15, -4, 58, -1, 25, -7, 189, 606
1486636459.4940403, -56, 26, 14, -21, -180, -8, 27, -16, 189, 606
1486636459.4964767, -69, 5, 4, -15, -34, -4, 19, -4, 189, 606
1486636459.508916, 26, -16, 32, 14, 196, 3, 14, 7, 189, 606
1486636459.509196, 116, -23, 42, 20, 250, 8, 21, 13, 189, 606
1486636459.509233, 51, 9, 36, -2, -7, -3, 24, 0, 189, 606
1486636459.5241106, -73, 28, 12, -18, -201, -11, 26, -10, 189, 606
1486636459.5276246, -64, 18, 14, -16, 0, -17, 10, -10, 189, 606
1486636459.5276935, 46, -23, 31, 11, 215, -2, -1, -4, 189, 606
1486636459.5315685, 131, -19, 48, 15, 202, -6, 18, 6, 189, 606
1486636459.5332541, 38, 8, 34, 2, -59, -9, 26, 2, 189, 606
1486636459.5333927, -70, 30, 12, -23, -162, -9, 27, -16, 189, 606
1486636459.5455828, -48, 15, 25, -8, 16, -11, 16, -2, 189, 606
1486636459.5458279, 78, -22, 42, 7, 224, -10, 17, 13, 189, 606
1486636459.5491219, 130, -20, 42, 25, 191, -2, 29, 24, 189, 606
1486636459.5605783, 24, 7, 20, -6, -96, -12, 32, 9, 189, 606
1486636459.5616205, -92, 23, -5, -16, -181, -13, 32, 12, 189, 606
1486636459.5620513, -40, -10, 23, 0, 4, -17, 10, -10, 189, 606
1486636459.5688555, 80, -33, 33, 25, 238, -37, -5, -8, 189, 606
1486636459.569107, 121, -8, 32, 9, 143, -51, -25, -26, 189, 606
1486636459.5691438, 19, 23, 17, -12, -143, -77, 26, 2, 189, 606
1486636459.5840545, -94, 31, 11, -17, -193, -108, -74, -66, 189, 606
1486636459.5852973, -26, -6, 18, 10, 31, -149, -118, -88, 189, 606
1486636459.5853658, 87, -22, 43, 17, 200, -178, -147, 169, 189, 606
1486636459.5980074, 119, 8, 37, 17, 16, -209, -166, -106, 189, 606
1486636459.599086, -3, 28, 11, -14, -257, -241, -190, -141, 189, 606
1486636459.5993817, -100, 20, 7, -17, -215, -278, -229, -158, 189, 606
1486636459.6056705, -14, 1, 33, 7, 0, -293, -256, -154, 189, 606
1486636459.6061413, 107, -19, 42, 22, 171, -312, -282, -154, 189, 606
1486636459.6072183, 96, 0, 31, 2, -11, -324, -292, -175, 189, 606
1486636459.6100674, 19, 23, 17, -12, -143, -77, -43, -43, 189, 606
1486636459.6206722, -102, 24, 1, -17, -232, -360, -324, -207, 189, 606
1486636459.6212351, -4, 4, 26, 11, 58, -348, -326, -186, 189, 606
1486636459.6246817, 87, -22, 43, 17, 200, -178, -147, -87, 189, 606
1486636459.637014, 89, 1, 28, 7, -18, -339, -318, -177, 189, 606
1486636459.6429932, -44, 25, 0, -22, -283, -348, -319, -198, 189, 606
1486636459.644834, -80, 17, 7, -17, -215, -278, -229, -158, 189, 606
1486636459.650585, 14, -12, 23, 12, 116, -330, -327, -177, 189, 606
1486636459.6514914, 129, -20, 41, 26, 184, -328, -325, -163, 189, 606
1486636459.652648, 68, 7, 15, 2, -11, -324, -292, -175, 189, 606
1486636459.6590674, -56, 21, 17, -16, -281, -336, -317, -192, 189, 606
1486636459.6629739, -66, 17, 6, -3, -113, -335, -322, -190, 189, 606
1486636459.6630423, 21, -21, 26, 18, 58, -348, -326, -186, 189, 606
1486636459.6730351, 125, -23, 33, 19, 148, -322, -317, -165, 189, 606
1486636459.673353, 55, 8, 30, -4, -32, -325, -316, -176, 189, 606
1486636459.6746397, -67, 22, 4, -16, -283, -348, -319, -198, 189, 606
1486636459.6805818, -67, 13, 11, -10, -79, -324, -316, -187, 189, 606
1486636459.6816015, 43, -20, 37, 14, 154, -323, -319, -170, 189, 606
1486636459.6834428, 134, -24, 34, 20, 115, -328, -325, -163, 189, 606
1486636459.6955118, 38, -9, 22, -1, -110, -318, -305, -175, 189, 606
1486636459.695818, -70, 28, 4, -21, -286, -322, -307, -192, 189, 606
1486636459.696938, -60, 13, 20, -4, -70, -329, -322, -190, 189, 606
1486636459.710521, 71, -19, 38, 16, 159, -322, -319, -168, 189, 606
1486636459.711614, 121, -17, 26, 25, 117, -308, -301, -160, 189, 606
1486636459.71488, 27, 8, 18, 4, -157, -314, -316, -176, 189, 606
1486636459.7190936, -85, 30, 9, -20, -266, -323, -308, -205, 189, 606
1486636459.7201529, -43, 5, 19, 0, -42, -320, -318, -194, 189, 606
1486636459.720221, 77, -31, 29, 18, 200, -312, -318, -170, 189, 606
1486636459.7343695, 114, -16, 27, 20, 109, -311, -307, -177, 189, 606
1486636459.7354226, 26, 12, 18, -6, -200, -312, -302, -181, 189, 606
1486636459.7354896, -97, 15, -6, -19, -472, -322, -307, -192, 189, 606
1486636459.748137, -29, -2, 22, 3, -2, -313, -308, -183, 189, 606
1486636459.7490408, 88, -18, 37, 28, 215, -326, -339, -184, 189, 606
1486636459.7499256, 115, -4, 33, 8, 32, -327, -301, -160, 189, 606
1486636459.755528, 7, 28, 17, -9, -216, -329, -304, -199, 189, 606
1486636459.7566082, -95, 26, 14, -16, -218, -337, -320, -209, 189, 606
1486636459.7580793, -17, -7, 15, -2, 5, -332, -327, -194, 189, 606
1486636459.770629, 110, -24, 41, 19, 188, -323, -328, -184, 189, 606
1486636459.7709298, 109, 0, 27, 15, 10, -331, -315, -183, 189, 606
1486636459.771526, -25, 32, 13, -18, -218, -329, -313, -197, 189, 606
1486636459.7855687, -90, 24, 4, -13, -191, -323, -311, -196, 189, 606
1486636459.7865756, -5, -7, 29, -1, 40, -328, -326, -179, 189, 606
1486636459.78898, 100, -28, 36, 27, 200, -324, -312, -184, 189, 606
1486636459.793034, 81, 0, 25, 2, -15, -318, -305, -164, 189, 606
1486636459.7940917, -42, 19, 11, -10, -264, -327, -309, -181, 189, 606
1486636459.7950776, -91, 16, 17, -2, -175, -329, -314, -209, 189, 606
1486636459.8087778, 4, -9, 29, 22, 106, -322, -320, -175, 189, 606
1486636459.8095078, 116, -30, 30, 22, 175, -321, -310, -158, 189, 606
1486636459.8095467, 77, -4, 18, 7, -34, -323, -315, -183, 189, 606
1486636459.8242133, -55, 18, 8, -12, -294, -327, -303, -197, 189, 606
1486636459.82449, -85, 10, 20, -10, -141, -328, -315, -193, 189, 606
1486636459.8245268, 14, -15, 26, 10, 120, -317, -315, -176, 189, 606
1486636459.8305583, 131, -24, 43, 18, 161, -315, -312, -166, 189, 606
1486636459.8315594, 60, -2, 26, 1, -72, -311, -301, -169, 189, 606
1486636459.8341963, -68, 21, 9, -25, -278, -311, -291, -174, 189, 606
1486636459.8455853, -79, 11, 8, -7, -93, -311, -306, -177, 189, 606
1486636459.84657, 41, -23, 32, 11, 132, -309, -308, -162, 189, 606
1486636459.8492255, 132, -20, 39, 22, 138, -301, -297, -158, 189, 606
1486636459.8606215, 51, 7, 33, -3, -99, -301, -291, -166, 189, 606
1486636459.8615959, -73, 24, 15, -20, -263, -309, -292, -181, 189, 606
1486636459.8619013, -61, 21, 24, -10, -85, -309, -303, -178, 189, 606
1486636459.868222, 59, -16, 39, 14, 161, -302, -306, -156, 189, 606
1486636459.8687425, 123, -20, 41, 14, 125, -299, -298, -155, 189, 606
1486636459.8696852, 31, 16, 16, -3, -153, -298, -282, -162, 189, 606
1486636459.8704052, -68, 21, 9, -25, -278, -311, -291, -174, 189, 606
1486636459.8830636, -53, 3, 21, 3, -68, -306, -297, -158, 189, 606
1486636459.884062, 84, -25, 31, 23, 198, -292, -290, -140, 189, 606
1486636459.8860607, 113, -20, 39, 22, 138, -301, -297, -158, 189, 606
1486636459.8991115, 31, 13, 34, -11, -190, -299, -286, -161, 189, 606
1486636459.900904, -89, 25, 16, -11, -229, -298, -284, -167, 189, 606
1486636459.9009602, -27, 4, 27, -10, -85, -309, -303, -178, 189, 606
1486636459.906185, 84, -23, 38, 23, 221, -286, -289, -143, 189, 606
1486636459.9066436, 118, -17, 41, 16, 54, -288, -287, -145, 189, 606
1486636459.906712, 1, 10, 18, -13, -217, -298, -282, -162, 189, 606
1486636459.9287715, -98, 21, 4, -17, -183, -286, -275, -159, 189, 606
1486636459.9297287, -17, -3, 18, -3, 16, -284, -283, -146, 189, 606
1486636459.929796, 114, -26, 31, 22, 234, -279, -290, -140, 189, 606
1486636459.9306014, 94, -12, 34, 11, 64, -286, -284, -141, 189, 606
1486636459.9356947, -23, 22, 21, -9, -204, -289, -279, -164, 189, 606
1486636459.936558, -99, 26, 16, -7, -158, -288, -289, -167, 189, 606
1486636459.943135, 1, 0, 23, 6, 91, -282, -289, -151, 189, 606
1486636459.944097, 114, -29, 41, 29, 241, -282, -287, -144, 189, 606
1486636459.946318, 92, 0, 28, 12, 18, -282, -274, -145, 189, 606
1486636459.958054, -46, 17, 8, -24, -238, -278, -265, -162, 189, 606
1486636459.9590602, -99, 12, 13, -15, -151, -289, -282, -165, 189, 606
1486636459.9622736, -2, -10, 32, 8, 119, -284, -283, -146, 189, 606
1486636459.973926, 118, -25, 38, 17, 204, -272, -287, -140, 189, 606
1486636459.9740257, 77, 7, 35, 6, -5, -274, -273, -143, 189, 606
1486636459.974987, -48, 32, 13, -13, -271, -285, -277, -164, 189, 606
1486636459.9815958, -86, 14, 9, -15, -88, -274, -276, -153, 189, 606
1486636459.9839509, 18, -13, 31, 9, 143, -282, -284, -144, 189, 606
1486636459.9840174, 135, -20, 41, 18, 178, -271, -270, -132, 189, 606
1486636459.9958668, 68, 7, 24, 6, -36, -275, -262, -146, 189, 606
1486636459.996283, -48, 25, 4, -27, -262, -272, -265, -160, 189, 606
1486636459.9968858, -81, 13, 13, -7, -78, -283, -281, -161, 189, 606
1486636460.010619, 35, -18, 33, 16, 153, -277, -286, -144, 189, 606
1486636460.0115614, 133, -21, 38, 17, 172, -265, -277, -142, 189, 606
1486636460.0153491, 42, 3, 16, -3, -75, -274, -273, -143, 189, 606
1486636460.0180402, -67, 26, 12, -16, -264, -279, -270, -155, 189, 606
1486636460.0182998, -59, 11, 21, -2, -66, -271, -276, -150, 189, 606
1486636460.0191, 62, -12, 44, 16, 172, -282, -284, -144, 189, 606
1486636460.0330427, 139, -16, 41, 14, 157, -270, -272, -128, 189, 606
1486636460.0342948, 41, 5, 24, 1, -139, -263, -260, -142, 189, 606
1486636460.0364594, -73, 38, 14, -24, -251, -269, -266, -158, 189, 606
1486636460.049068, -50, 3, 14, -1, -40, -272, -274, -145, 189, 606
1486636460.0527508, 86, -22, 29, 22, 224, -254, -270, -128, 189, 606
1486636460.052818, 120, -23, 35, 21, 120, -253, -262, -133, 189, 606
1486636460.0557506, 29, 4, 29, -9, -183, -262, -254, -145, 189, 606
1486636460.0562615, -96, 14, 5, -13, -223, -261, -258, -152, 189, 606
1486636460.0577176, -40, -7, 18, -2, 10, -259, -269, -145, 189, 606
1486636460.0706048, 97, -21, 31, 27, 219, -256, -269, -133, 937, 335
1486636460.0715322, 125, -11, 36, 11, 97, -251, -257, -129, 937, 335
1486636460.072899, 17, 18, 22, -11, -176, -263, -260, -142, 937, 335
1486636460.085792, -95, 20, -1, -18, -186, -258, -255, -138, 937, 335
1486636460.0858586, -20, -8, 22, 0, 20, -251, -253, -122, 937, 335
1486636460.0866024, 90, -31, 34, 13, 216, -246, -270, -128, 937, 335
1486636460.0940127, 107, -15, 34, 18, 67, -241, -246, -113, 937, 335
1486636460.0962875, 1, 26, 18, -13, -177, -252, -242, -133, 937, 335
1486636460.0963764, -88, 29, 9, -14, -171, -259, -246, -152, 937, 335
1486636460.1081285, -3, -1, 27, 5, 68, -256, -254, -130, 937, 335
1486636460.109073, 107, -21, 43, 27, 232, -245, -249, -111, 937, 335
1486636460.1093175, 103, -1, 35, 15, 33, -242, -232, -109, 937, 335
1486636460.123843, -35, 24, 6, -13, -198, -256, -236, -130, 937, 335
1486636460.1239154, -92, 18, 14, -4, -165, -254, -236, -126, 937, 335
1486636460.1246765, 2, -10, 24, 15, 113, -247, -245, -114, 937, 335
1486636460.1250355, 90, -31, 34, 13, 216, -246, -255, -110, 937, 335
1486636460.1322587, 73, -2, 24, 2, 11, -243, -232, -105, 937, 335
1486636460.1381245, -50, 19, 22, -18, -238, -241, -223, -124, 937, 335
1486636460.1392283, -86, 17, 9, -14, -171, -259, -246, -136, 937, 335
1486636460.1455724, 7, -15, 29, 7, 146, -240, -243, -108, 937, 335
1486636460.1465683, 120, -29, 28, 11, 208, -233, -234, -99, 937, 335
1486636460.148737, 72, 1, 32, 15, 33, -242, -232, -109, 937, 335
1486636460.160597, -63, 22, 15, -19, -248, -242, -227, -129, 937, 335
1486636460.161646, -79, 10, 12, -17, -69, -243, -239, -124, 937, 335
1486636460.1644075, 28, -19, 27, 12, 157, -247, -245, -114, 937, 335
1486636460.1680584, 140, -29, 47, 14, 175, -234, -236, -100, 937, 335
1486636460.168976, 51, 0, 20, 7, -69, -235, -226, -115, 937, 335
1486636460.1693208, -64, 22, 2, -29, -268, -237, -223, -124, 937, 335
1486636460.1831348, -72, 9, 10, -14, -62, -230, -233, -127, 937, 335
1486636460.1840045, 59, -23, 27, 15, 163, -229, -236, -103, 937, 335
1486636460.1853552, 130, -24, 31, 9, 167, -228, -229, -99, 937, 335
1486636460.197993, 31, 2, 17, -10, -114, -226, -214, -107, 937, 335
1486636460.1990042, -75, 22, 11, -20, -247, -233, -223, -120, 937, 335
1486636460.201979, -55, 10, 17, 3, -43, -234, -230, -116, 937, 335
1486636460.2132354, 69, -28, 25, 19, 176, -225, -242, -111, 937, 335
1486636460.2139661, 128, -17, 34, 14, 131, -232, -235, -107, 937, 335
1486636460.218361, 37, 10, 20, -5, -158, -232, -226, -115, 937, 335
1486636460.2205484, -83, 21, 16, -18, -235, -241, -233, -135, 937, 335
1486636460.2215576, -36, 9, 24, 5, -11, -235, -238, -123, 937, 335
1486636460.2218878, 81, -18, 19, 27, 238, -225, -245, -103, 937, 335
1486636460.2355213, 113, -14, 34, 13, 94, -229, -232, -103, 937, 335
1486636460.2364569, 26, 22, 12, -4, -181, -233, -224, -115, 937, 335
1486636460.2398973, -94, 25, -3, -20, -196, -236, -227, -120, 937, 335
1486636460.24306, -31, 0, 16, 5, 10, -230, -240, -122, 937, 335
1486636460.244038, 108, -21, 44, 23, 244, -227, -237, -97, 937, 335
1486636460.2455952, 110, -16, 27, 25, 55, -222, -221, -96, 937, 335
1486636460.259424, 3, 19, 11, -13, -185, -225, -220, -114, 937, 335
1486636460.2656703, -106, 22, 2, -18, -178, -230, -216, -109, 937, 335
1486636460.2671106, -7, -5, 22, 8, -217, -235, -238, -123, 937, 335
1486636460.2737956, 88, -30, 33, 32, 236, -215, -219, -82, 937, 335
1486636460.27386, 100, -4, 28, 15, 48, -214, -214, -90, 937, 335
1486636460.2741215, -23, 21, 7, -16, -192, -233, -224, -115, 937, 335
1486636460.280582, -87, 19, 11, -10, -150, -225, -225, -117, 937, 335
1486636460.2815015, 5, -3, 25, 13, 102, -218, -224, -93, 937, 335
1486636460.2830882, 107, -28, 35, 25, 249, -217, -237, -97, 937, 335
1486636460.2955482, 84, 6, 27, 7, 45, -213, -211, -91, 937, 335
1486636460.2964873, -39, 22, 16, -17, -258, -210, -198, -113, 937, 335
1486636460.299835, -80, 13, 11, -14, -135, -206, -216, -109, 937, 335
1486636460.310508, 3, -10, 26, 6, 137, -184, -182, -64, 937, 335
1486636460.311601, 129, -27, 36, 19, 233, -161, -164, -47, 937, 335
1486636460.3159242, 62, 4, 27, 8, 4, -149, -126, -56, 937, 335
1486636460.3180072, -58, 19, 15, -26, -258, -142, -109, -59, 937, 335
1486636460.318967, -81, 18, 5, -15, -106, -109, -91, -42, 937, 335
1486636460.3216338, 31, -9, 34, 15, 141, -218, -224, -93, 937, 335
1486636460.333152, 130, -22, 34, 20, 198, -58, -26, 11, 937, 335
1486636460.3339903, 54, 6, 27, -4, -17, -37, 4, 10, 937, 335
1486636460.3342888, -75, 20, 3, -23, -235, -29, -241, -113, 937, 335
1486636460.3481255, -77, 12, 19, -9, -50, -13, 19, 19, 937, 335
1486636460.348884, 46, -19, 34, 20, 166, 3, 22, 34, 937, 335
1486636460.3511562, 131, -29, 34, 12, 179, 14, 30, 33, 937, 335
1486636460.3561137, 46, 4, 20, -2, -45, 8, 27, 17, 937, 335
1486636460.3575566, -62, 36, 15, -26, -207, 11, 28, 6, 937, 335
1486636460.3578417, -71, 5, 20, 3, -36, 4, 20, 17, 937, 335
1486636460.370576, 62, -24, 25, 22, 233, 14, 14, 34, 937, 335
1486636460.3714108, 125, -26, 35, 20, 193, 11, 20, 34, 937, 335
1486636460.3719912, 45, 12, 30, -9, -98, 2, 27, 21, 937, 335
1486636460.3736491, -75, 20, 3, -23, -235, -29, 15, -3, 937, 335
1486636460.3855774, -47, -4, 17, 4, 31, -1, 8, 12, 937, 335
1486636460.3860438, 81, -24, 32, 17, 254, 4, 7, 35, 937, 335
1486636460.3903234, 131, -29, 34, 12, 179, 14, 30, 33, 937, 335
1486636460.3931694, 21, 7, 23, -12, -132, 2, 26, 20, 937, 335
1486636460.3936377, -90, 21, 14, -14, -143, 4, 20, 18, 937, 335
1486636460.3946054, -31, -7, 12, 3, -36, 4, 20, 17, 937, 335
1486636460.408125, 99, -22, 35, 22, 263, 2, 9, 42, 937, 335
1486636460.4087422, 106, -24, 30, 16, 126, 9, 20, 39, 937, 335
1486636460.4107993, 3, 17, 21, -11, -98, 2, 27, 21, 937, 335
1486636460.423104, -100, 22, 8, -15, -118, 6, 23, 27, 937, 335
1486636460.4240243, -13, -1, 23, -6, 67, 1, 7, 32, 937, 335
1486636460.4275177, 108, -27, 31, 23, 254, 4, 7, 35, 937, 335
1486636460.4305496, 105, -11, 23, 3, 121, 15, 27, 45, 937, 335
1486636460.4315317, -19, 18, 15, -14, -123, 17, 33, 24, 937, 335
1486636460.4333467, -100, 15, 8, -9, -113, 9, 20, 18, 937, 335
1486636460.4456117, -1, -4, 21, 3, 163, 9, 13, 31, 937, 335
1486636460.4465, 103, -18, 38, 27, 294, 16, 17, 44, 937, 335
1486636460.4496417, 95, 2, 36, 5, 103, 23, 32, 46, 937, 335
1486636460.460562, -36, 21, 7, -12, -151, 10, 25, 21, 937, 335
1486636460.461531, -94, 9, 2, -7, -53, 13, 21, 26, 937, 335
1486636460.465203, 2, -19, 17, 5, 193, 10, 12, 40, 937, 335
1486636460.4681706, 118, -24, 43, 18, 260, 20, 19, 48, 937, 335
1486636460.46902, 80, 6, 34, 7, 87, 28, 32, 38, 937, 335
1486636460.4696999, -56, 17, 10, -19, -142, 17, 33, 24, 937, 335
1486636460.4831238, -86, 12, 13, -9, -47, 14, 19, 21, 937, 335
1486636460.4840128, 16, -21, 28, 9, 220, 15, 7, 27, 937, 335
1486636460.484879, 125, -32, 30, 10, 243, 14, 9, 44, 937, 335
1486636460.4981518, 59, 2, 16, -3, 57, 16, 22, 24, 937, 335
1486636460.498994, -68, 26, 13, -27, -177, 13, 24, 15, 937, 335
1486636460.5024323, -77, 12, 14, -16, -10, 11, 9, 22, 937, 335
1486636460.5055497, 34, -27, 28, 19, 244, 11, 0, 34, 937, 335
1486636460.5065408, 126, -18, 32, 14, 238, 16, 9, 43, 937, 335
1486636460.5078182, 40, 8, 24, -5, -11, 11, 19, 34, 937, 335
1486636460.5205767, -73, 22, 17, -24, -177, 5, 14, 23, 937, 335
1486636460.5214567, -58, 5, 15, -12, 35, 0, 0, 19, 937, 335
1486636460.5289056, 61, -18, 32, 8, 243, 0, 7, 27, 937, 335
1486636460.535785, 119, -22, 35, 9, 203, 4, -1, 34, 937, 335
1486636460.536312, 36, 6, 15, -6, -58, -1, 6, 20, 937, 335
1486636460.5365343, -86, 16, 9, -23, -139, -2, 11, 15, 937, 335
1486636460.543123, -53, -1, 20, -8, 58, -8, -9, 13, 937, 335
1486636460.5440106, 85, -29, 36, 20, 282, -3, -10, 35, 937, 335
1486636460.544991, 124, -15, 43, 9, 221, 5, 3, 43, 937, 335
1486636460.5583928, 23, 2, 21, -3, -50, 10, 14, 24, 937, 335
1486636460.5587661, -99, 27, 8, -26, -119, 2, 11, 18, 937, 335
1486636460.5606463, -33, 2, 21, -9, 65, 0, 0, 19, 937, 335
1486636460.5731268, 94, -20, 40, 20, 276, 10, -5, 29, 937, 335
1486636460.5739434, 122, -8, 30, 6, 176, 8, 8, 29, 937, 335
1486636460.5747225, 16, 24, 17, -13, -95, 6, 6, 20, 937, 335
1486636460.5805693, -85, 27, 8, -14, -118, 5, 4, 6, 937, 335
1486636460.5816033, -10, 3, 25, -1, 81, 0, -4, 18, 937, 335
1486636460.5900388, 91, -24, 31, 21, 318, 9, -4, 35, 937, 335
1486636460.5956101, 104, -11, 28, 5, 136, 7, -4, 29, 937, 335
1486636460.5964818, -6, 23, 17, -8, -117, 2, 6, 15, 937, 335
1486636460.5975697, -88, 22, 11, -11, -92, -3, -1, 5, 937, 335
1486636460.6106029, -5, -8, 36, 1, 173, 4, -12, 17, 937, 335
1486636460.6114526, 109, -21, 47, 20, 298, 2, -15, 25, 937, 335
1486636460.6129782, 103, -3, 42, 3, 96, 252, 8, 29, 937, 335
1486636460.6182094, -29, 30, 17, -13, -143, -3, 2, 11, 937, 335
1486636460.6189475, -92, 13, 16, -18, -38, 1, 0, 19, 937, 335
1486636460.6194713, 10, -10, 29, 11, 200, 3, -11, 26, 937, 335
1486636460.6331644, 124, -30, 45, 23, 261, 4, -9, 34, 937, 335
1486636460.6337974, 81, -2, 37, 10, 109, 3, 1, 28, 937, 335
1486636460.6344492, -47, 30, 20, -16, -176, -3, 3, 17, 937, 335
1486636460.6351209, -83, 22, 11, -11, -92, -3, -1, 5, 937, 335
1486636460.6499305, 24, -13, 34, 6, 225, 6, -10, 26, 937, 335
1486636460.650973, 132, -23, 49, 24, 271, 4, 0, 39, 937, 335
1486636460.6557152, 66, 9, 27, 3, 96, -4, -2, 24, 937, 335
1486636460.6562374, -69, 20, 10, -26, -162, -2, -1, 7, 937, 335
1486636460.6572561, -77, 5, 21, -12, 7, -5, -9, 14, 937, 335
1486636460.6608295, 28, -17, 28, 13, 200, 3, -11, 26, 937, 335
1486636460.6707106, 133, -31, 38, 17, 295, 5, -6, 31, 937, 335
1486636460.6715639, 53, 2, 25, 7, 39, 9, 7, 22, 937, 335
1486636460.674465, -64, 18, 11, -17, -155, -3, 3, 17, 937, 335
1486636460.685721, -71, 6, 11, -9, 42, 0, -11, 12, 937, 335
1486636460.6867228, 52, -23, 30, 19, 251, -2, -9, 38, 937, 335
1486636460.687824, 133, -10, 41, 14, 255, 5, 0, 39, 937, 335
1486636460.6928604, 37, 8, 21, 0, -18, 13, 10, 27, 937, 335
1486636460.6948104, -69, 21, 16, -15, -174, -3, 5, 10, 937, 335
1486636460.7031434, -59, 2, 13, 0, 55, 7, -7, 12, 937, 335
1486636460.7082016, 61, -21, 41, 22, 270, 11, 3, 29, 937, 335
1486636460.7085538, 124, -15, 36, 22, 209, 5, 5, 31, 937, 335
1486636460.7140665, 39, 13, 19, -4, -85, 0, 12, 15, 937, 335
1486636460.723251, -95, 23, 9, -20, -114, -6, 10, 11, 937, 335
1486636460.7241685, -41, 2, 15, -7, 60, -1, -6, 24, 937, 335
1486636460.7261472, 86, -21, 40, 18, 298, -2, -9, 38, 937, 335
1486636460.730545, 124, -15, 39, 19, 192, 5, 3, 34, 937, 335
1486636460.731584, 25, 15, 16, -12, -105, 0, 16, 21, 937, 335
1486636460.7337203, -93, 24, -1, -21, -130, 0, 16, 10, 937, 335
1486636460.7455976, -22, -1, 23, -3, 82, 1, 4, 22, 937, 335
1486636460.7465398, 103, -20, 36, 17, 301, 7, 2, 38, 937, 335
1486636460.7486827, 103, -15, 25, 10, 143, -4, 10, 29, 937, 335
1486636460.760474, -8, 20, 15, -22, -117, -10, 11, 12, 937, 335
1486636460.7613878, -102, 18, 5, -19, -116, -12, 0, 4, 937, 335
1486636460.7653897, -9, -9, 18, -3, 112, -7, -7, 21, 937, 335
1486636460.768154, 106, -30, 32, 20, 307, 0, 2, 36, 937, 335
1486636460.7690163, 102, -8, 23, 8, 139, 3, 5, 29, 937, 335
1486636460.7698977, -28, 22, 23, -16, -118, 0, 16, 21, 937, 335
1486636460.7831612, -82, 18, 21, -9, -83, -11, -1, 7, 937, 335
1486636460.7840142, -2, 0, 35, 3, 201, 1, -3, 17, 937, 335
1486636460.785915, 116, -31, 33, 23, 294, 3, 2, 38, 937, 335
1486636460.798117, 86, -5, 35, 3, 86, 2, 12, 25, 937, 335
1486636460.7990105, -42, 28, 18, -14, -129, -3, 16, 9, 937, 335
1486636460.8002443, -74, 19, 21, -13, -55, -2, 0, 4, 937, 335
1486636460.8055792, 9, -5, 32, 12, 190, 2, 5, 18, 937, 335
1486636460.8065233, 132, -23, 39, 20, 255, 5, 9, 27, 937, 335
1486636460.8068364, 74, -1, 31, -1, 62, 12, 5, 29, 937, 335
1486636460.82162, -54, 26, 11, -21, -155, 6, 19, 7, 937, 335
1486636460.8240337, -73, 24, 13, -15, -7, 10, 16, 18, 937, 335
1486636460.8240895, 30, -13, 32, 15, 210, 14, 8, 28, 937, 335
1486636460.835621, 124, -27, 42, 21, 276, 29, 21, 39, 937, 335
1486636460.8364832, 55, 1, 25, 2, 66, 33, 42, 36, 937, 335
1486636460.8368618, -66, 27, 11, -20, -163, 17, 37, 25, 937, 335
1486636460.843152, -66, 5, 12, -9, 2, 12, 21, 23, 937, 335
1486636460.8434038, 41, -29, 30, 13, 222, 13, 17, 41, 937, 335
1486636460.8445625, 130, -27, 34, 15, 236, 4, 12, 45, 937, 335
1486636460.8580112, 42, 8, 16, -4, -27, 14, 25, 32, 1380, 854
1486636460.8588696, -61, 29, 6, -30, -169, 3, 16, 12, 1380, 854
1486636460.8596897, -63, 5, 20, -4, 40, -4, -6, 10, 1380, 854
1486636460.8599503, 30, -13, 32, 15, 210, 14, 8, 28, 1380, 854
1486636460.873135, 137, -9, 27, 11, 233, 12, 18, 44, 1380, 854
1486636460.8737898, 39, -2, 22, -10, -56, 9, 26, 32, 1380, 854
1486636460.8745952, -76, 31, 11, -20, -163, 17, 37, 25, 1380, 854
1486636460.8815503, -37, 4, 21, -4, 38, 4, 0, 18, 1380, 854
1486636460.8819854, 81, -21, 21, 15, 281, 11, 2, 35, 1380, 854
1486636460.882034, 118, -15, 39, 15, 236, 4, 12, 45, 1380, 854
1486636460.895573, 21, 12, 25, -9, -70, 2, 24, 29, 1380, 854
1486636460.8959908, -93, 24, 5, -12, -117, -2, 10, 18, 1380, 854
1486636460.8967216, -32, -2, 13, -11, 40, -4, -6, 10, 1380, 854
1486636460.9105422, 93, -30, 34, 21, 284, 8, 8, 37, 1380, 854
1486636460.910991, 113, -9, 38, 9, 174, 6, 16, 35, 1380, 854
1486636460.9120774, 7, 7, 12, -5, -56, 9, 26, 32, 1380, 854
1486636460.9183085, -86, 27, 10, -14, -107, -3, 10, 12, 1380, 854
1486636460.9187672, -10, 0, 17, -7, 93, -3, 4, 19, 1380, 854
1486636460.9206088, 103, -19, 39, 24, 281, 11, 2, 35, 1380, 854
1486636460.9331646, 114, -4, 29, 16, 122, 4, 13, 27, 1380, 854
1486636460.9339414, -19, 13, 14, -23, -112, -3, 14, 2, 1380, 854
1486636460.9372003, -96, 24, 2, -22, -109, -2, 10, 18, 1380, 854
1486636460.94829, -8, -7, 30, 1, 155, 1, 0, 25, 1380, 854
1486636460.948752, 108, -24, 45, 31, 319, 2, -1, 39, 1380, 854
1486636460.950017, 97, 2, 31, 10, 135, 6, 16, 35, 1380, 854
1486636460.9556375, -37, 29, 11, -17, -103, -1, 19, 22, 1380, 854
1486636460.9565651, -95, 18, 11, -10, -67, 2, 8, 17, 1380, 854
1486636460.9583962, 1, -1, 25, 6, 172, -1, 6, 30, 1380, 854
1486636460.9706109, 118, -21, 37, 23, 274, 0, 6, 39, 1380, 854
1486636460.9715397, 79, 11, 25, 2, 96, 2, 9, 26, 1380, 854
1486636460.9720976, -50, 23, 14, -17, -137, 1, 14, 14, 1380, 854
1486636460.9855332, -80, 13, 18, -3, -39, 2, 8, 11, 1380, 854
1486636460.986544, 2, -22, 24, 11, 204, 6, 1, 31, 1380, 854
1486636460.986838, 125, -26, 33, 22, 275, 8, 9, 41, 1380, 854
1486636460.9931085, 61, 1, 22, 4, 106, 6, 15, 30, 1380, 854
1486636460.9934437, -58, 25, 15, -25, -175, -2, 8, 15, 1380, 854
1486636460.9949455, -79, 9, 9, -4, -11, 7, 7, 19, 1380, 854
1486636461.0081277, 20, -29, 31, 12, 247, 9, 7, 36, 1380, 854
1486636461.009034, 132, -27, 41, 13, 264, 15, 18, 49, 1380, 854
1486636461.0108883, 58, 7, 24, -6, 33, 8, 16, 28, 1380, 854
1486636461.0231183, -60, 28, 9, -25, -172, 2, 15, 13, 1380, 854
1486636461.0238008, -61, 8, 15, -9, 31, 2, 5, 13, 1380, 854
1486636461.024624, 51, -14, 38, 10, 224, 0, 1, 31, 1380, 854
1486636461.0306082, 136, -19, 43, 13, 214, 3, 0, 25, 1380, 854
1486636461.0312047, 38, 6, 30, 0, -40, -6, 9, 20, 1380, 854
1486636461.0365074, -76, 23, 16, -26, -142, -10, 8, 15, 1380, 854
1486636461.045516, -52, 9, 11, -12, 17, -7, 5, 18, 1380, 854
1486636461.0465214, 69, -24, 39, 4, 263, -9, -2, 34, 1380, 854
1486636461.047448, 126, -22, 29, 13, 201, -1, 11, 49, 1380, 854
1486636461.0606167, 26, 1, 24, -3, -37, -3, 13, 12, 1380, 854
1486636461.0612295, -71, 37, 7, -30, -155, -16, 6, -2, 1380, 854
1486636461.0617566, -39, 5, 26, -1, 47, -4, 6, 13, 1380, 854
1486636461.0681195, 80, -25, 29, 15, 270, 1, -4, 21, 1380, 854
1486636461.0690532, 114, -18, 39, 17, 184, -10, -23, 6, 1380, 854
1486636461.0694087, 11, 16, 17, -16, -79, -9, 9, 12, 1380, 854
1486636461.0831642, -87, 34, 1, -17, -108, 16, 22, 24, 1380, 854
1486636461.0836005, -24, -1, 19, 1, 133, 32, 11, 37, 1380, 854
1486636461.0849068, 97, -26, 32, 22, 365, 52, 2, 54, 1380, 854
1486636461.0981288, 103, -10, 27, 10, 234, 69, 14, 63, 1380, 854
1486636461.098846, -4, 18, 18, -20, 12, 80, 13, 55, 1380, 854
1486636461.0992947, -90, 23, 1, -17, 11, 99, 10, 55, 1380, 854
1486636461.1044781, -14, 5, 26, -1, 47, -4, 6, 9, 1380, 854
1486636461.1056569, 101, -21, 41, 28, 486, 128, 5, 102, 1380, 854
1486636461.1100328, 98, -8, 34, 11, 302, 127, 12, 100, 1380, 854
1486636461.121555, -24, 17, 18, -15, 56, 122, 4, 75, 1380, 854
1486636461.122004, -95, 22, 17, -11, 90, 108, -19, 70, 1380, 854
1486636461.1220407, -7, -1, 16, -11, 367, 118, -29, 86, 1380, 854
1486636461.1227102, 101, -26, 32, 22, 365, 52, 2, 54, 1380, 854
1486636461.1357002, 89, -2, 27, -2, 285, 129, -6, 98, 1380, 854
1486636461.136374, -34, 24, 21, -19, 97, 121, -2, 89, 1380, 854
1486636461.1367393, -90, 16, 22, -12, 146, 99, 10, 55, 1380, 854
1486636461.1444242, -8, -2, 17, 5, 382, 123, -16, 94, 1380, 854
1486636461.1507847, 111, -27, 32, 12, 455, 125, -15, 104, 1380, 854
1486636461.152227, 73, -9, 14, 0, 290, 117, 244, 100, 1380, 854
1486636461.1583345, -45, 21, 5, -12, 54, 110, -13, 74, 1380, 854
1486636461.1589367, -82, 17, 7, -22, 146, 111, -20, 73, 1380, 854
1486636461.16293, 8, -9, 33, 13, 408, 116, -25, 86, 1380, 854
1486636461.1731348, 131, -25, 32, 23, 465, 120, -15, 102, 1380, 854
1486636461.1734376, 51, 1, 22, -1, 287, 116, -4, 94, 1380, 854
1486636461.1743486, -56, 24, 6, -18, 50, 108, -2, 73, 1380, 854
1486636461.1806352, -78, 9, 5, -11, 181, 107, -17, 76, 1380, 854
1486636461.1816843, 35, -20, 23, 13, 415, 115, -16, 88, 1380, 854
1486636461.182112, 119, -35, 33, 14, 447, 125, -15, 104, 1380, 854
1486636461.1957686, 43, 6, 22, -2, 246, 112, -6, 82, 1380, 854
1486636461.1963646, -66, 27, 9, -24, 51, 113, -11, 69, 1380, 854
1486636461.1965866, -58, 5, 16, -12, 212, 111, -20, 73, 1380, 854
1486636461.210699, 49, -20, 34, 20, 425, 118, -21, 88, 1380, 854
1486636461.2116225, 121, -24, 31, 22, 443, 118, -14, 100, 1380, 854
1486636461.213226, 28, 1, 18, 3, 184, 116, -4, 94, 1380, 854
1486636461.2180722, -65, 25, 20, -19, 62, 105, -11, 79, 1380, 854
1486636461.218832, -53, 2, 29, 5, 239, 116, -18, 85, 1380, 854
1486636461.2200043, 71, -23, 28, 13, 460, 117, -27, 88, 1380, 854
1486636461.233097, 118, -20, 29, 13, 401, 115, -17, 97, 1380, 854
1486636461.2341788, 24, 2, 20, -12, 138, 116, -7, 87, 1380, 854
1486636461.2351964, -88, 30, 14, -20, 61, 114, -12, 76, 1380, 854
1486636461.2481334, -46, -7, 21, -3, 259, 115, -24, 87, 1380, 854
1486636461.2498128, 79, -27, 23, 12, 486, 121, -19, 97, 1380, 854
1486636461.2565362, 112, -13, 36, 21, 387, 117, -17, 94, 1380, 854
1486636461.2570198, 17, 14, 17, -5, 99, 120, -3, 76, 1380, 854
1486636461.2570562, -92, 27, 15, -17, 88, 117, -6, 66, 1380, 854
1486636461.2573464, -31, 0, 20, 0, 281, 107, -23, 81, 1380, 854
1486636461.2706888, 102, -29, 27, 23, 474, 116, -24, 88, 1380, 854
1486636461.2709422, 107, -14, 25, 9, 346, 110, -21, 85, 1380, 854
1486636461.2727094, -3, 14, 21, -9, 89, 104, -7, 87, 1380, 854
1486636461.2857006, -104, 22, 12, -21, 112, 110, -14, 63, 1380, 854
1486636461.2865458, -11, -2, 21, -1, 305, 108, -31, 63, 1380, 854
1486636461.2868054, 101, -25, 35, 17, 465, 107, -30, 97, 1380, 854
1486636461.2931337, 96, -7, 31, 5, 320, 110, -20, 79, 1380, 854
1486636461.2934716, -16, 22, 7, -13, 82, 111, -11, 63, 1380, 854
1486636461.3019996, -87, 26, 5, -14, 118, 102, -22, 60, 1380, 854
1486636461.3088408, -3, -7, 29, 2, 338, 107, -26, 71, 1380, 854
1486636461.3156621, 108, -23, 39, 28, 464, 107, -31, 73, 1380, 854
1486636461.316512, 87, -2, 33, 7, 305, 110, -20, 66, 1380, 854
1486636461.317025, -3, 14, 21, -9, 89, 104, -11, 70, 1380, 854
1486636461.317959, -96, 16, 2, -11, 125, 101, -24, 48, 1380, 854
1486636461.3232586, 5, -7, 19, 0, 356, 110, -36, 61, 1380, 854
1486636461.3242972, 118, -25, 35, 17, 465, 107, -30, 77, 1380, 854
1486636461.3316936, 73, 8, 36, -2, 287, 99, -31, 50, 1380, 854
1486636461.333363, -54, 25, 12, -17, 34, 93, -29, 36, 1380, 854
1486636461.333431, -79, 26, 5, -14, 118, 102, -22, 60, 1380, 854
1486636461.3457322, 13, -18, 22, 17, 402, 100, -39, 56, 1380, 854
1486636461.3466718, 126, -27, 31, 16, 461, 105, -29, 77, 1380, 854
1486636461.3487318, 50, -2, 31, 7, 305, 110, -20, 66, 1380, 854
1486636461.3605857, -54, 25, 19, -19, 28, 103, -15, 56, 1380, 854
1486636461.3616748, -79, 14, 16, -7, 186, 102, -22, 58, 1380, 854
1486636461.3651195, 31, -21, 45, 18, 430, 110, -36, 61, 1380, 854
1486636461.368191, 119, -26, 44, 31, 442, 109, -26, 73, 1380, 854
1486636461.3691776, 45, 5, 18, -7, 193, 105, -10, 67, 1380, 854
1486636461.3695834, -59, 27, 5, -29, 53, 98, -29, 36, 1380, 854
1486636461.3830912, -59, 9, 14, -13, 227, 98, -20, 67, 1380, 854
1486636461.3833258, 54, -22, 17, 16, 412, 95, -20, 85, 1380, 854
1486636461.3843772, 125, -21, 33, 15, 413, 98, -8, 93, 1380, 854
1486636461.3981817, 38, 22, 21, 3, 178, 98, -7, 77, 1380, 854
1486636461.3986418, -78, 34, 7, -8, 73, 97, -7, 62, 1380, 854
1486636461.3991182, -63, 6, 15, -7, 215, 89, -21, 66, 1380, 854
1486636461.405836, 69, -22, 29, 8, 422, 93, -27, 76, 1380, 854
1486636461.406314, 125, -19, 30, 23, 399, 101, -12, 79, 1380, 854
1486636461.4074645, 21, 7, 15, 3, 132, 105, -10, 67, 1380, 854
1486636461.4282413, -93, 29, 8, -21, 85, 97, -10, 52, 1380, 854
1486636461.4288232, -45, 5, 8, -6, 237, 91, -19, 62, 1380, 854
1486636461.4297464, 85, -24, 34, 21, 465, 102, -22, 85, 1380, 854
1486636461.4321964, 112, -17, 30, 24, 361, 102, -4, 83, 1380, 854
1486636461.4359648, 13, 10, 13, -11, 127, 91, -8, 64, 1380, 854
1486636461.4370604, -93, 37, 7, -15, 67, 83, -12, 53, 1380, 854
1486636461.4516032, -20, 0, 27, 0, 269, 81, -33, 57, 1380, 854
1486636461.4534662, 86, -17, 38, 29, 464, 89, -27, 72, 1380, 854
1486636461.453561, 103, -16, 21, 11, 341, 86, -21, 68, 1380, 854
1486636461.458298, -3, 18, 14, -19, 71, 82, -10, 54, 1380, 854
1486636461.4590034, -93, 22, 5, -16, 76, 78, -17, 48, 1380, 854
1486636461.459348, -13, -2, 22, 1, 296, 83, -19, 62, 1380, 854
1486636461.4731643, 90, -23, 31, 17, 496, 91, -19, 76, 1380, 854
1486636461.4741244, 96, -1, 22, -1, 311, 92, -2, 75, 1380, 854
1486636461.4777224, -25, 30, 15, -12, 59, 83, -3, 64, 1380, 854
1486636461.488105, -91, 23, 9, -12, 98, 77, -18, 51, 1380, 854
1486636461.4891038, -8, -7, 15, -8, 361, 86, -21, 70, 1380, 854
1486636461.4898446, 109, -22, 33, 14, 465, 95, -12, 80, 1380, 854
1486636461.4956942, 97, 2, 33, 6, 281, 90, 3, 72, 1380, 854
1486636461.4960845, -45, 30, 19, -11, 33, 84, -3, 54, 1380, 854
1486636461.5005002, -88, 13, 1, -18, 123, 78, -17, 48, 1380, 854
1486636461.5105655, -6, -9, 14, 7, 372, 88, -17, 73, 1380, 854
1486636461.511244, 113, -27, 37, 20, 451, 91, -11, 84, 1380, 854
1486636461.5129106, 69, 3, 20, 9, 270, 90, -7, 75, 1380, 854
1486636461.5180604, -51, 17, 4, -13, 34, 81, -3, 59, 1380, 854
1486636461.5188916, -84, 16, 16, -11, 149, 86, -7, 63, 1380, 854
1486636461.520125, 6, -18, 26, 19, 408, 88, -17, 81, 1380, 854
1486636461.5330222, 132, -27, 39, 28, 436, 88, -11, 86, 1380, 854
1486636461.5339882, 52, -5, 32, 12, 243, 85, -2, 71, 1380, 854
1486636461.5344515, -70, 26, 9, -18, 30, 76, -9, 56, 1380, 854
1486636461.536362, -88, 13, 1, -18, 123, 82, -10, 55, 1380, 854
1486636461.548382, 38, -18, 28, 17, 382, 83, -10, 80, 1380, 854
1486636461.5519702, 127, -21, 30, 12, 428, 89, -11, 84, 1380, 854
1486636461.555839, 40, 0, 22, 0, 191, 86, -1, 68, 1380, 854
1486636461.5565028, -79, 20, 12, -27, 18, 76, -9, 50, 1380, 854
1486636461.5575087, -68, 4, 9, -6, 202, 80, -17, 54, 1380, 854
1486636461.5705278, 59, -24, 38, 13, 426, 88, -18, 67, 1380, 854
1486636461.5740502, 114, -21, 33, 17, 404, 90, -7, 78, 1380, 854
1486636461.5782704, 33, 10, 26, -9, 147, 86, 1, 62, 1380, 854
1486636461.5793946, -79, 29, 9, -18, 30, 76, -9, 56, 1380, 854
1486636461.5856643, -49, 10, 21, -1, 214, 77, -19, 53, 1380, 854
1486636461.5865777, 73, -16, 42, 12, 464, 83, -16, 78, 1380, 854
1486636461.5870013, 114, -5, 37, 19, 428, 89, -10, 72, 1380, 854
1486636461.5939744, 30, 19, 18, -13, 78, 84, 8, 60, 1380, 854
1486636461.5940433, -96, 25, 6, -17, 49, 80, -1, 51, 1380, 854
1486636461.5945764, -34, 6, 21, 2, 233, 80, -17, 54, 1380, 854
1486636461.6081328, 80, -27, 25, 13, 465, 84, -11, 72, 1380, 854
1486636461.6087966, 99, -24, 26, 8, 331, 87, -4, 80, 1380, 854
1486636461.6097887, 4, 14, 18, -13, 101, 85, 1, 62, 1380, 854
1486636461.6231833, -105, 19, 11, -13, 84, 76, -3, 52, 1380, 854
1486636461.624157, -27, -8, 17, -4, 269, 79, -8, 68, 1380, 854
1486636461.6252046, 108, -19, 40, 18, 493, 92, -4, 82, 1380, 854
1486636461.6306362, 103, -10, 23, 7, 317, 87, 3, 68, 1380, 854
1486636461.631667, -19, 19, 17, -17, 91, 85, 9, 63, 1380, 854
1486636461.6323967, -108, 28, 10, -20, 90, 81, 1, 59, 1380, 854
1486636461.6459303, -9, -8, 28, 2, 318, 82, -12, 70, 1380, 854
1486636461.6462612, 108, -28, 39, 20, 465, 90, -10, 74, 1380, 854
1486636461.646819, 97, -4, 34, 8, 306, 87, -4, 80, 1380, 854
1486636461.6607163, -33, 26, 4, -19, 58, 72, -4, 46, 1380, 854
1486636461.661575, -94, 24, 11, -22, 73, 74, -11, 48, 1380, 854
1486636461.6630552, -6, -8, 28, 12, 330, 76, -8, 68, 1380, 854
1486636461.668054, 100, -28, 46, 19, 459, 76, -5, 72, 1380, 854
1486636461.6683717, 78, 3, 22, 2, 286, 77, 9, 71, 1380, 854
1486636461.6705866, -50, 32, 10, -20, 21, 75, 9, 63, 1380, 854
1486636461.6831124, -76, 16, 12, -10, 138, 73, -1, 49, 1380, 854
1486636461.6841185, 5, -14, 24, 3, 391, 78, -10, 65, 1380, 854
1486636461.687332, 119, -30, 25, 13, 436, 82, -1, 73, 1380, 854
1486636461.6982558, 54, 0, 21, 7, 249, 85, 9, 62, 2498, 355
1486636461.6991146, -61, 31, 8, -19, 4, 70, 7, 41, 2498, 355
1486636461.7000773, -84, 15, 18, -3, 178, 68, -6, 40, 2498, 355
1486636461.70585, 20, -17, 32, 17, 397, 71, -11, 62, 2498, 355
1486636461.7064052, 121, -16, 31, 8, 420, 78, -2, 69, 2498, 355
1486636461.711002, 47, 8, 30, 9, 177, 75, 11, 65, 2498, 355
1486636461.7207701, -73, 22, 4, -22, -5, 65, 6, 47, 2498, 355
1486636461.7215903, -72, 11, 14, -12, 186, 73, 9, 57, 2498, 355
1486636461.7255313, 51, -19, 33, 20, 421, 74, -10, 65, 2498, 355
1486636461.7358477, 130, -13, 40, 19, 401, 74, 5, 72, 2498, 355
1486636461.7363217, 41, 9, 25, 7, 149, 78, 16, 58, 2498, 355
1486636461.736687, -78, 22, 11, -27, -3, 67, 7, 44, 2498, 355
1486636461.7446144, -65, 1, 18, -12, 197, 67, 1, 50, 2498, 355
1486636461.7510252, 72, -21, 38, 9, 399, 73, -1, 68, 2498, 355
1486636461.751284, 121, -15, 44, 19, 355, 76, 11, 74, 2498, 355
1486636461.7581792, 29, 11, 29, -11, 125, 70, 21, 65, 2498, 355
1486636461.759167, -81, 34, 2, -21, 27, 66, 11, 46, 2498, 355
1486636461.7618709, -51, -2, 21, -7, 205, 67, 5, 54, 2498, 355
1486636461.7732012, 82, -29, 33, 18, 433, 69, 3, 67, 2498, 355
1486636461.7742202, 112, -18, 39, 15, 353, 64, 0, 57, 2498, 355
1486636461.7744632, 22, 22, 18, -4, 86, 60, 8, 48, 2498, 355
1486636461.780874, -93, 29, 4, -14, 62, 55, -3, 36, 2498, 355
1486636461.7823405, -27, 7, 26, -5, 234, 60, -11, 52, 2498, 355
1486636461.7851267, 85, -23, 27, 14, 459, 73, 2, 76, 2498, 355
1486636461.7851932, 111, -15, 44, 19, 355, 76, 11, 74, 2498, 355
1486636461.7956414, 4, 20, 20, -19, 61, 61, 17, 47, 2498, 355
1486636461.7959542, -94, 27, 12, -14, 51, 59, 12, 43, 2498, 355
1486636461.7994719, -24, -2, 21, -7, 205, 67, 5, 54, 2498, 355
1486636461.8117619, 92, -23, 34, 18, 445, 53, 1, 63, 2498, 355
1486636461.8118296, 96, -6, 31, 5, 297, 60, 12, 60, 2498, 355
1486636461.8140879, -16, 25, 23, -4, 86, 60, 8, 48, 2498, 355
1486636461.8191912, -107, 20, 17, -5, 49, 54, 5, 38, 2498, 355
1486636461.8192873, -1, 1, 19, 7, 310, 56, -6, 47, 2498, 355
1486636461.819757, 102, -18, 31, 23, 459, 73, 2, 76, 2498, 355
1486636461.8331168, 96, -7, 28, 2, 252, 61, 6, 52, 2498, 355
1486636461.8333998, -36, 26, 17, -17, 49, 54, 12, 41, 2498, 355
1486636461.8345742, -93, 14, 11, -13, 81, 59, 12, 43, 2498, 355
1486636461.8557174, 4, -9, 23, 8, 335, 72, 16, 65, 2498, 355
1486636461.856315, 119, -27, 44, 27, 434, 75, 17, 78, 2498, 355
1486636461.856637, 77, -6, 29, -4, 243, 65, 26, 60, 2498, 355
1486636461.8626106, -50, 22, 17, -11, 2, 63, 33, 52, 2498, 355
1486636461.8635392, -85, 19, 0, -11, 123, 66, 24, 59, 2498, 355
1486636461.866646, 5, -11, 26, 9, 365, 68, 22, 73, 2498, 355
1486636461.8706472, 122, -22, 44, 26, 386, 63, 29, 83, 2498, 355
1486636461.8716662, 55, -3, 24, 13, 218, 64, 41, 83, 2498, 355
1486636461.8726084, -66, 28, 12, -18, -9, 61, 12, 41, 2498, 355
1486636461.8856199, -81, 16, 15, -14, 131, 59, 36, 69, 2498, 355
1486636461.8866887, 35, -19, 33, 27, 365, 62, 34, 95, 2498, 355
1486636461.887485, 134, -29, 32, 20, 375, 63, 17, 78, 2498, 355
1486636461.8940992, 47, -1, 19, 4, 183, 65, 52, 86, 2498, 355
1486636461.8957465, -75, 24, 11, -13, -23, 68, 61, 70, 2498, 355
1486636461.8958144, -75, 7, 18, -10, 154, 61, 39, 59, 2498, 355
1486636461.9080904, 45, -21, 39, 28, 357, 59, 37, 79, 2498, 355
1486636461.90911, 130, -19, 40, 20, 351, 61, 50, 78, 2498, 355
1486636461.9115481, 33, 11, 21, 4, 78, 72, 84, 73, 2498, 355
1486636461.9306357, -69, 27, 10, -21, -43, 89, 102, 89, 2498, 355
1486636461.9315953, -60, -3, 6, -1, 171, 110, 100, 114, 2498, 355
1486636461.9320402, 70, -23, 29, 28, 385, 121, 131, 140, 2498, 355
1486636461.9330087, 121, -6, 30, 8, 320, 144, 171, 156, 2498, 355
1486636461.9384274, 32, 8, 12, 0, 62, 172, 210, 147, 2498, 355
1486636461.9401128, -86, 26, 10, -15, -3, 68, 61, 70, 2498, 355
1486636461.9457698, -43, -6, 13, -6, 169, 218, 282, 190, 2498, 355
1486636461.9466016, 75, -12, 19, 14, 389, 247, 306, 231, 2498, 355
1486636461.9494712, 118, -18, 29, 17, 277, 270, 349, 243, 2498, 355
1486636461.9616857, 11, 13, 14, 0, 42, 285, 375, 240, 2498, 355
1486636461.96301, -107, 17, 3, -8, 7, 299, 390, 243, 2498, 355
1486636461.9630857, -39, -1, 16, 4, 222, 321, 401, 264, 2498, 355
1486636461.9682364, 94, -29, 36, 23, 434, 338, 406, 292, 2498, 355
1486636461.9692338, 116, -12, 24, 18, 271, 344, 423, 289, 2498, 355
1486636461.9699733, 8, 19, 13, -9, 53, 345, 429, 278, 2498, 355
1486636461.983216, -94, 22, 8, -16, 49, 352, 422, 276, 2498, 355
1486636461.9841928, -16, -7, 14, 4, 279, 347, 396, 274, 2498, 355
1486636461.985483, 104, -25, 28, 20, 455, 349, 396, 284, 2498, 355
1486636461.9986317, 83, -20, 23, 15, 281, 346, 406, 274, 2498, 355
1486636462.0018218, -21, 20, 10, -7, 69, 339, 405, 261, 2498, 355
1486636462.0056276, -96, 15, 4, -12, 110, 344, 396, 254, 2498, 355
1486636462.006687, 1, -1, 16, 4, 222, 321, 401, 264, 2498, 355
1486636462.0071633, 100, -19, 43, 31, 457, 345, 386, 275, 2498, 355
1486636462.0083437, 78, -4, 30, 10, 290, 344, 397, 261, 2498, 355
1486636462.0140371, -47, 19, 13, -9, 53, 345, 429, 278, 2498, 355
1486636462.0206945, -97, 11, 8, -8, 109, 339, 393, 255, 2498, 355
1486636462.0216944, 6, -5, 23, 12, 369, 337, 383, 265, 2498, 355
1486636462.0227966, 110, -32, 37, 20, 455, 349, 396, 284, 2498, 355
1486636462.0356638, 70, 1, 14, -5, 280, 344, 398, 264, 2498, 355
1486636462.0360234, -49, 25, 5, -12, 44, 327, 387, 243, 2498, 355
1486636462.0401611, -76, 10, -1, -13, 131, 344, 396, 254, 2498, 355
1486636462.043153, 19, -21, 26, 13, 392, 323, 369, 254, 2498, 355
1486636462.04421, 124, -29, 29, 23, 427, 323, 376, 260, 2498, 355
1486636462.0455508, 52, -252, 30, 10, 290, 344, 397, 261, 2498, 355
1486636462.058179, -50, 23, 13, -14, -5, 320, 392, 239, 2498, 355
1486636462.059122, -78, 7, 9, -3, 156, 317, 387, 232, 2498, 355
1486636462.060121, 24, -20, 31, 19, 420, 337, 383, 265, 2498, 355
1486636462.0733197, 116, -24, 35, 17, 424, 325, 383, 253, 2498, 355
1486636462.0738537, 37, 6, 24, 5, 178, 329, 395, 255, 2498, 355
1486636462.0767736, -80, 25, 19, -21, 21, 323, 392, 235, 2498, 355
1486636462.0816975, -70, 14, 19, -7, 193, 320, 379, 235, 2498, 355
1486636462.0820289, 53, -22, 31, 7, 403, 321, 369, 249, 2498, 355
1486636462.0820668, 124, -19, 36, 9, 384, 333, 391, 258, 2498, 355
1486636462.0967188, 34, 1, 23, 1, 136, 321, 397, 239, 2498, 355
1486636462.0982385, -95, 18, 17, -16, 21, 326, 396, 229, 2498, 355
1486636462.0983067, -66, -1, 8, -5, 220, 319, 371, 241, 2498, 355
1486636462.110739, 70, -24, 29, 12, 432, 323, 379, 263, 2498, 355
1486636462.1114504, 121, -17, 32, 21, 385, 339, 398, 269, 2498, 355
1486636462.1121066, 24, 1, 18, -7, 125, 329, 395, 255, 2498, 355
1486636462.118218, -90, 22, -1, -29, 46, 326, 402, 243, 2498, 355
1486636462.1191816, -54, -7, 14, -7, 209, 332, 397, 256, 2498, 355
1486636462.1194406, 80, -32, 21, 21, 464, 336, 391, 249, 2498, 355
1486636462.1331537, 107, -20, 26, 14, 341, 342, 403, 265, 2498, 355
1486636462.1342146, 19, 20, 13, -4, 106, 329, 396, 245, 2498, 355
1486636462.1349707, -97, 27, 7, -18, 61, 322, 395, 238, 2498, 355
1486636462.1481733, -32, -4, 17, -4, 251, 324, 388, 250, 2498, 355
1486636462.1492112, 86, -27, 33, 25, 478, 330, 388, 264, 2498, 355
1486636462.1517136, 95, -9, 23, 6, 320, 339, 398, 269, 2498, 355
1486636462.157246, -4, 31, 20, -13, 73, 318, 396, 242, 2498, 355
1486636462.1633759, -100, 11, 2, -18, 55, 314, 392, 235, 2498, 355
1486636462.1642473, -14, -5, 22, -2, 283, 309, 397, 256, 2498, 355
1486636462.1717305, 95, -31, 24, 19, 451, 314, 383, 254, 2498, 355
1486636462.1723795, 95, -13, 31, 10, 277, 315, 389, 250, 2498, 355
1486636462.1724474, -33, 22, 5, -16, 34, 306, 392, 232, 2498, 355
1486636462.1867328, -95, 20, 10, -16, 97, 311, 388, 234, 2498, 355
1486636462.1872294, 1, -8, 26, 8, 324, 318, 383, 242, 2498, 355
1486636462.1872735, 104, -27, 36, 26, 448, 311, 383, 256, 2498, 355
1486636462.1937032, 81, -3, 23, 10, 260, 314, 394, 259, 2498, 355
1486636462.1984608, -54, 28, 14, -12, 10, 309, 400, 241, 2498, 355
1486636462.1985493, -93, 21, 12, -13, 91, 314, 392, 235, 2498, 355
1486636462.2082067, -3, -10, 28, 11, 350, 299, 369, 250, 2498, 355
1486636462.2091656, 112, -39, 30, 16, 422, 305, 390, 265, 2498, 355
1486636462.209971, 63, -4, 22, 1, 227, 300, 390, 250, 2498, 355
1486636462.2231789, -69, 13, 13, -23, 4, 292, 393, 236, 2498, 355
1486636462.2242117, -81, 12, 16, -10, 145, 300, 383, 237, 2498, 355
1486636462.2248814, 13, -21, 33, 20, 362, 296, 375, 255, 2498, 355
1486636462.231721, 118, -20, 30, 17, 422, 298, 380, 261, 2498, 355
1486636462.2320743, 47, 8, 23, -4, 205, 300, 388, 249, 2498, 355
1486636462.2321112, -69, 20, 10, -18, -4, 289, 383, 235, 2498, 355
1486636462.2456558, -78, 1, 14, -9, 189, 286, 379, 243, 2498, 355
1486636462.2466924, 33, -22, 27, 14, 401, 293, 376, 264, 2498, 355
1486636462.250027, 123, -25, 26, 13, 395, 295, 392, 269, 2498, 355
1486636462.2607749, 38, 7, 16, -9, 144, 295, 399, 254, 2498, 355
1486636462.261408, -79, 21, 11, -19, -6, 284, 391, 239, 2498, 355
1486636462.261796, -62, 2, 1, -6, 181, 286, 379, 238, 2498, 355
1486636462.2641163, 13, -21, 33, 20, 362, 296, 375, 255, 2498, 355
1486636462.2682207, 118, -24, 25, 19, 341, 279, 368, 241, 2498, 355
1486636462.269207, 18, 1, 19, -8, 118, 274, 372, 229, 2498, 355
1486636462.2696643, -92, 30, 10, -18, -4, 289, 383, 235, 2498, 355
1486636462.283176, -59, -1, 22, -4, 198, 273, 367, 237, 2498, 355
1486636462.2841625, 75, -26, 34, 13, 396, 272, 367, 262, 2498, 355
1486636462.2859452, 112, -20, 25, 13, 395, 295, 392, 269, 2498, 355
1486636462.2982492, 19, 9, 13, -15, 67, 277, 381, 247, 2498, 355
1486636462.2993243, -108, 21, 11, -23, 8, 274, 379, 235, 2498, 355
1486636462.3001566, -25, -7, 19, -10, 189, 286, 379, 238, 2498, 355
1486636462.3056314, 93, -21, 29, 23, 407, 276, 367, 249, 2498, 355
1486636462.3058941, 99, -12, 31, 13, 291, 282, 374, 251, 2498, 355
1486636462.3087313, -1, 20, 5, -18, 42, 272, 372, 229, 2498, 355
1486636462.3216999, -93, 28, 7, -19, 29, 270, 367, 224, 2498, 355
1486636462.3217907, -29, -6, 22, 1, 251, 266, 354, 238, 2498, 355
1486636462.3232377, 90, -28, 27, 22, 455, 274, 358, 262, 2498, 355
1486636462.3367212, 98, -1, 18, 9, 300, 275, 373, 252, 2498, 355
1486636462.3370264, -17, 19, 15, -12, 33, 267, 372, 237, 2498, 355
1486636462.3370626, -87, 24, 3, -13, 47, 266, 370, 227, 2498, 355
1486636462.3431706, -9, -1, 27, 8, 292, 267, 360, 239, 2498, 355
1486636462.344217, 105, -25, 30, 22, 408, 268, 367, 257, 2498, 355
1486636462.3448844, 99, 0, 29, 3, 240, 282, 374, 251, 2498, 355
1486636462.3582306, -33, 20, 14, -8, 23, 262, 371, 232, 2498, 355
1486636462.3586981, -87, 20, 14, -11, 74, 256, 360, 231, 2498, 355
1486636462.3606086, 4, -8, 19, 9, 320, 257, 352, 238, 2498, 355
1486636462.3732314, 119, -35, 38, 26, 401, 260, 354, 252, 2498, 355
1486636462.3742125, 69, 3, 25, 12, 226, 263, 370, 248, 2498, 355
1486636462.376782, -53, 20, 1, -17, -9, 259, 368, 230, 2498, 355
1486636462.3817036, -84, 11, 7, -20, 107, 252, 354, 234, 2498, 355
1486636462.3825045, 19, -20, 23, 10, 352, 253, 353, 250, 2498, 355
1486636462.382573, 129, -34, 35, 27, 394, 258, 353, 257, 2498, 355
1486636462.3967056, 56, 6, 22, 5, 190, 260, 365, 246, 2498, 355
1486636462.3967748, -59, 30, 13, -18, -17, 252, 360, 223, 2498, 355
1486636462.3977365, -75, 16, 10, -7, 115, 244, 353, 231, 2498, 355
1486636462.4116867, 32, -18, 35, 18, 357, 252, 346, 244, 2498, 355
1486636462.412645, 129, -20, 43, 23, 373, 261, 362, 254, 2498, 355
1486636462.4127142, 31, -1, 22, 1, 145, 246, 361, 248, 2498, 355
1486636462.4182308, -71, 19, -2, -21, -47, 244, 361, 224, 2498, 355
1486636462.4192061, -59, 3, 12, 0, 176, 247, 345, 225, 2498, 355
1486636462.4198303, 60, -20, 24, 16, 372, 253, 350, 250, 2498, 355
1486636462.4331796, 131, -20, 41, 15, 353, 252, 354, 254, 2498, 355
1486636462.4335234, 42, 3, 24, -12, 86, 246, 367, 239, 2498, 355
1486636462.4350536, -79, 23, 6, -23, -7, 252, 360, 223, 2498, 355
1486636462.4482236, -54, 2, 22, 5, 158, 246, 354, 236, 2498, 355
1486636462.4492307, 79, -20, 35, 18, 398, 255, 351, 250, 2498, 355
1486636462.4502864, 109, -17, 29, 18, 314, 256, 362, 254, 2498, 355
1486636462.455832, 21, 8, 22, 1792, 15057, -24080, 5887, 3072, 2498, 355
1486636462.4561477, -40, 1, 30, 2, -72, 244, 361, 224, 2498, 355
1486636462.4707344, 76, -33, 28, 28, 409, 240, 337, 237, 2498, 355
1486636462.47173, 100, -22, 28, 14, 296, 240, 347, 237, 2498, 355
1486636462.4725301, 3, 13, 13, -18, 20, 238, 354, 254, 2498, 355
1486636462.4857407, -101, 29, 7, -16, -8, 237, 356, 222, 2498, 355
1486636462.486794, -23, -2, 23, 2, 200, 242, 345, 230, 2498, 355
1486636462.4900408, 94, -19, 34, 21, 418, 236, 342, 236, 2498, 355
1486636462.49472, 101, -10, 31, 10, 232, 242, 352, 237, 2498, 355
1486636462.5008166, -15, 17, 8, -6, 3, 231, 357, 222, 2498, 355
1486636462.5018241, -99, 18, 7, -17, 27, 226, 349, 218, 2498, 355
1486636462.5084057, -15, -7, 16, 3, 264, 236, 344, 235, 2498, 355
1486636462.508855, 98, -35, 33, 19, 389, 236, 350, 241, 2498, 355
1486636462.509841, 93, -12, 23, 8, 199, 234, 356, 230, 2498, 355
1486636462.5112896, 3, 13, 13, -18, 20, 238, 358, 224, 2498, 355
1486636462.5231771, -98, 7, 3, -15, 43, 222, 341, 203, 2498, 355
1486636462.5242534, -2, -6, 24, -2, 291, 223, 340, 226, 2498, 355
1486636462.5262804, 122, -31, 37, 21, 418, 236, 342, 237, 2498, 355
1486636462.530874, 84, 0, 40, 17, 190, 226, 350, 227, 2498, 355
1486636462.5317128, -57, 15, 13, -11, -27, 228, 356, 217, 2498, 355
1486636462.5326307, -78, 20, 4, -11, 53, 226, 349, 218, 2498, 355
1486636462.5466044, 7, -17, 26, 11, 302, 228, 346, 230, 2498, 355
1486636462.5474355, 120, -32, 34, 20, 352, 226, 347, 234, 2498, 355
1486636462.547504, 56, 3, 27, 7, 197, 234, 356, 230, 2498, 355
1486636462.5606542, -59, 26, -5, -19, -67, 219, 354, 197, 2498, 355
1486636462.561666, -87, 16, 14, -11, 73, 213, 342, 207, 2498, 355
1486636462.563397, 27, -10, 23, 10, 320, 222, 339, 224, 2498, 355
1486636462.5681832, 133, -20, 41, 25, 343, 233, 353, 229, 2498, 355
1486636462.5687144, 43, 8, 13, 7, 147, 224, 355, 226, 2498, 355
1486636462.5725474, -74, 18, 13, -25, -49, 218, 357, 219, 2498, 355
1486636462.583414, -72, 9, 14, 1, 110, 223, 350, 215, 2498, 355
1486636462.5839505, 38, -35, 25, 17, 331, 221, 335, 226, 2498, 355
1486636462.5843885, 117, -26, 36, 21, 346, 226, 347, 234, 2498, 355
1486636462.5981946, 26, -1, 11, 6, 70, 218, 352, 220, 2498, 355
1486636462.599187, -80, 25, 6, -30, -74, 221, 358, 205, 2498, 355
1486636462.5996861, -76, -6, 9, -6, 115, 217, 342, 207, 2498, 355
1486636462.6058316, 59, -24, 40, 13, 362, 227, 351, 236, 2498, 355
1486636462.6066306, 119, -22, 40, 12, 293, 222, 354, 234, 2498, 355
1486636462.610716, 26, 9, 25, -11, 72, 219, 355, 226, 2498, 355
1486636462.6206706, -87, 18, 5, -20, -63, 208, 344, 199, 2498, 355
1486636462.6216238, -54, 5, 25, -2, 158, 215, 337, 212, 2498, 355
1486636462.6220567, 73, -25, 30, 15, 369, 211, 329, 226, 2498, 355
1486636462.641139, 111, -15, 37, 12, 262, 215, 347, 226, 874, 395
1486636462.6429462, 13, 20, 19, -12, 12, 218, 350, 213, 874, 395
1486636462.6431525, -102, 22, 8, -22, -27, 207, 339, 204, 874, 395
1486636462.6442728, -48, -5, 9, -8, 145, 220, 339, 213, 874, 395
1486636462.6443405, 82, -21, 41, 20, 391, 224, 332, 221, 874, 395
1486636462.6456027, 112, -13, 30, 17, 264, 216, 336, 217, 874, 395
1486636462.65824, -6, 8, 18, -12, -6, 206, 334, 199, 874, 395
1486636462.6589205, -107, 27, 1, -22, -8, 201, 330, 192, 874, 395
1486636462.6592638, -23, -9, 21, -4, 181, 215, 337, 212, 874, 395
1486636462.67379, 97, -29, 31, 26, 398, 210, 329, 224, 874, 395
1486636462.67626, 95, -18, 26, 14, 201, 206, 336, 220, 874, 395
1486636462.681634, -19, 14, 5, -19, -10, 202, 340, 203, 874, 395
1486636462.6821263, -111, 22, 10, -4, -7, 200, 330, 200, 874, 395
1486636462.682163, -11, -4, 20, 4, 226, 206, 324, 206, 874, 395
1486636462.6828914, 103, -32, 32, 28, 358, 204, 319, 221, 874, 395
1486636462.6967518, 89, 3, 25, 2, 192, 201, 336, 215, 874, 395
1486636462.698317, -46, 16, 16, -15, -22, 200, 337, 210, 874, 395
1486636462.698385, -91, 16, 8, -22, -8, 198, 327, 202, 874, 395
1486636462.710715, -12, -23, 13, 12, 288, 202, 320, 212, 874, 395
1486636462.7117252, 107, -31, 28, 24, 337, 196, 316, 215, 874, 395
1486636462.7148333, 62, 1, 29, 1, 147, 201, 335, 205, 874, 395
1486636462.7182505, -54, 21, 8, -20, -95, 186, 321, 178, 874, 395
1486636462.7187972, -88, 12, 7, -15, 29, 182, 304, 177, 874, 395
1486636462.719917, 6, -14, 18, -1, 277, 183, 301, 194, 874, 395
1486636462.720239, 103, -32, 32, 28, 358, 204, 319, 221, 874, 395
1486636462.7331254, 48, -1, 17, 0, 129, 193, 325, 204, 874, 395
1486636462.7334433, -71, 20, 9, -16, -59, 193, 332, 190, 874, 395
1486636462.7343712, -91, 16, 8, -22, -8, 198, 327, 202, 874, 395
1486636462.7492132, 34, -18, 30, 7, 298, 199, 313, 207, 874, 395
1486636462.7500641, 117, -31, 30, 16, 295, 199, 315, 201, 874, 395
1486636462.7501323, 35, 3, 7, 1, 147, 201, 335, 205, 874, 395
1486636462.756756, -73, 29, 5, -19, -93, 186, 321, 187, 874, 395
1486636462.7568228, -66, 10, 23, -6, 71, 187, 314, 189, 874, 395
1486636462.7575214, 45, -30, 29, -232, 277, 183, 301, 194, 874, 395
1486636462.7707722, 114, -24, 29, 23, 312, 198, 325, 213, 874, 395
1486636462.7717533, 31, 9, 19, -5, 24, 188, 327, 190, 874, 395
1486636462.7729902, -81, 34, 5, -21, -59, 193, 332, 190, 874, 395
1486636462.786115, -56, -4, 13, 4, 114, 181, 302, 178, 874, 395
1486636462.7890117, 69, -23, 34, 24, 345, 190, 304, 200, 874, 395
1486636462.789079, 119, -18, 33, 19, 248, 186, 315, 201, 874, 395
1486636462.7932403, 32, 12, 18, -4, -33, 192, 328, 193, 874, 395
1486636462.7942004, -99, 30, 13, -8, -59, 178, 314, 184, 874, 395
1486636462.7957628, -46, 6, 19, 2, 121, 189, 316, 189, 874, 395
1486636462.8082364, 79, -24, 30, 22, 345, 193, 309, 210, 874, 395
1486636462.8089259, 107, -13, 27, 12, 213, 187, 320, 215, 874, 395
1486636462.8095582, 2, 13, 11, -7, -52, 177, 322, 196, 874, 395
