# distance: 60cm

t, ch0, ch1, ch2, ch3, ch4, ch5, ch6, ch7, x, y
1486723891.3016336, 58, -18, -201, -167, -25, -11, -16, -13, 1280, 720
1486723891.3016903, 65, -24, -207, -143, -43, -13, -13, -14, 1280, 720
1486723891.301727, 101, -26, -204, -140, -71, -18, -15, -17, 1280, 720
1486723891.3017492, 118, -23, -202, -165, -93, -18, -18, -14, 1280, 720
1486723891.30177, 108, -21, -203, -176, -58, -6, -15, -12, 1280, 720
1486723891.3017902, 79, -26, -224, -161, -31, -15, -20, -18, 1280, 720
1486723891.3018148, 85, -25, -225, -138, -39, -11, -24, -21, 1280, 720
1486723891.3018348, 127, -25, -214, -143, -89, -17, -15, -12, 1280, 720
1486723891.3018544, 143, -17, -208, -160, -99, -12, -7, -8, 1280, 720
1486723891.301874, 120, -16, -210, -170, -53, 25343, -27905, -3585, 1280, 720
1486723891.3018935, 153, -14, -215, -176, -102, -13, -11, -14, 1280, 720
1486723891.3019128, 127, -10, -224, -175, -52, -7, -8, -8, 1280, 720
1486723891.3019323, 109, -19, -234, -151, -39, -15, -23, -19, 1280, 720
1486723891.3019514, 117, -23, -229, -135, -74, -19, -11, -19, 1280, 720
1486723891.3019707, 148, -18, -225, -151, -110, -16, -13, -18, 1280, 720
1486723891.30199, 57, -65, -191, -107, -75, -14, -16, -21, 1280, 720
1486723891.3020108, 108, -59, -185, -118, -92, -19, -11, -17, 1280, 720
1486723891.3020318, 80, -58, -189, -135, -56, -10, -14, -18, 1280, 720
1486723891.3020775, 53, -64, -200, -120, -19, -8, -11, -17, 1280, 720
1486723891.302109, 62, -59, -209, -105, -51, -12, -7, -13, 1280, 720
1486723891.3021393, 80, -63, -199, -102, -72, -21, -5, -16, 1280, 720
1486723891.3021593, 109, -58, -192, -111, -97, -18, -10, -17, 1280, 720
1486723891.302537, 102, -61, -188, -132, -81, -17, -12, -13, 1280, 720
1486723891.3025742, 78, -53, -193, -132, -47, -11, -10, -14, 1280, 720
1486723891.3025987, 92, -58, -211, -101, -51, -8, -17, -11, 1280, 720
1486723891.3026202, 96, -57, -206, -119, -65, -17, -13, -12, 1280, 720
1486723891.3026407, 101, -55, -206, -134, -78, -14, -14, -14, 1280, 720
1486723891.3026607, 98, -53, -219, -130, -65, -12, -12, -13, 1280, 720
1486723891.3026843, 107, -41, -205, -142, -98, -23, -11, -12, 1280, 720
1486723891.3027058, 104, -41, -207, -150, -61, -14, -17, -15, 1280, 720
1486723891.3027253, 91, -56, -217, -114, -80, -23, -22, -19, 1280, 720
1486723891.3027475, 130, -51, -212, -121, -103, -25, -14, -10, 1280, 720
1486723891.3027673, 101, -51, -209, -102, -78, -20, -11, -7, 1280, 720
1486723891.302787, 136, -49, -201, -112, -98, -20, -15, -15, 1280, 720
1486723891.3028064, 133, -40, -195, -133, -86, -16, -15, -10, 1280, 720
1486723891.3028255, 87, -44, -200, -128, -43, -10, -9, -7, 1280, 720
1486723891.3028452, 84, -45, -204, -110, -44, -7, -8, -5, 1280, 720
1486723891.302864, 95, -48, -202, -104, -78, -21, -13, -12, 1280, 720
1486723891.3028834, 130, -40, -195, -115, -92, -21, -12, -12, 1280, 720
1486723891.3029027, 121, -40, -198, -130, -68, -15, -12, -9, 1280, 720
1486723891.302922, 88, -41, -208, -121, -33, -6, -9, -10, 1280, 720
1486723891.3029444, 77, -50, -211, -96, -27, -14, -14, -13, 1280, 720
1486723891.3029656, 99, -45, -205, -4038, 128, -48, -195, -120, 1280, 720
1486723891.302986, 126, -40, -196, -135, -65, -11, -10, -1, 1280, 720
1486723891.303005, 87, -40, -209, -129, -29, -8, -21, -10, 1280, 720
1486723891.3033898, 85, -40, -213, -114, -31, -14, -13, -14, 1280, 720
1486723891.3034267, 107, -42, -207, -105, -74, -14, -14, -5, 1280, 720
1486723891.3034525, 128, -37, -194, -132, -97, -10, -11, -15, 1280, 720
1486723891.3034747, 119, -22, -199, -147, -69, -6, -11, -15, 1280, 720
1486723891.3034956, 93, -31, -209, -133, -21, -8, -8, -12, 1280, 720
1486723891.3035164, 73, -38, -215, -111, -39, -14, -16, -17, 1280, 720
1486723891.3035364, 115, -35, -200, -115, -74, -23, -18, -14, 1280, 720
1486723891.3035562, 122, -32, -196, -132, -82, -13, -195, -120, 1280, 720
1486723891.3035758, 102, -36, -202, -142, -48, -13, -13, -11, 1280, 720
1486723891.3035953, 85, -38, -211, -126, -25, -12, -14, -13, 1280, 720
1486723891.3036144, 67, -44, -208, -101, -32, -17, -14, -23, 1280, 720
1486723891.303634, 114, -38, -197, -106, -80, -16, -14, -14, 1280, 720
1486723891.3036582, 119, -40, -200, -130, -80, -10, -15, -13, 1280, 720
1486723891.3036792, 99, -40, -207, -143, -39, -12, -13, -7, 1280, 720
1486723891.3036997, 69, -40, -219, -131, -23, -4, -23, -14, 1280, 720
1486723891.3037198, 76, -49, -220, -108, -34, -13, -18, -18, 1280, 720
1486723891.3037393, 122, -39, -208, -123, -88, -14, -17, -13, 1280, 720
1486723891.3037615, 128, -34, -199, -138, -87, -10, -10, -14, 1280, 720
1486723891.303781, 98, -33, -196, -135, -50, -11, -19, -13, 1280, 720
1486723891.303803, 68, -32, -205, -123, -17, -9, -25, -13, 1280, 720
1486723891.3038235, 88, -35, -199, -111, -54, -19, -18, -20, 1280, 720
1486723891.303845, 110, -31, -192, -123, -102, -16, -12, -14, 1280, 720
1486723891.3038661, 135, -26, -188, -146, -82, -9, -17, -15, 1280, 720
1486723891.303888, 97, -25, -198, -144, -48, -5, -11, -10, 1280, 720
1486723891.3042793, 81, -35, -212, -128, -31, -14, -10, -8, 1280, 720
1486723891.3043284, 95, -32, -205, -107, -67, -22, -13, -9, 1280, 720
1486723891.3043532, 125, -39, -195, -109, -83, -10, -14, -12, 1280, 720
1486723891.304375, 129, -42, -194, -133, -82, -13, -18, -5, 1280, 720
1486723891.3043966, 99, -37, -201, -130, -40, -8, -19, -13, 1280, 720
1486723891.3044164, 82, -45, -211, -109, -25, -13, -11, -9, 1280, 720
1486723891.3044362, 108, -39, -207, -100, -73, -18, -15, -7, 1280, 720
1486723891.3044562, 145, -32, -194, -114, -95, -21, -12, -7, 1280, 720
1486723891.3044755, 135, -29, -195, -137, -86, -17, -10, -10, 1280, 720
1486723891.304495, 97, -27, -205, -138, -41, -10, -16, -11, 1280, 720
1486723891.3045151, 91, -33, -209, -117, -39, -15, -16, -10, 1280, 720
1486723891.3045344, 111, -32, -205, -107, -67, -22, -13, -9, 1280, 720
1486723891.304554, 134, -28, -191, -126, -112, -15, -15, -7, 1280, 720
1486723891.3045735, 128, -21, -189, -150, -82, -14, -5, -3, 1280, 720
1486723891.3045928, 95, -21, -201, -130, -40, -8, -19, -14, 1280, 720
1486723891.304612, 89, -29, -211, -118, -37, -11, -18, -10, 1280, 720
1486723891.304631, 117, -34, -201, -109, -89, -20, -17, -13, 1280, 720
1486723891.3046505, 143, -24, -194, -114, -95, -21, -12, -7, 1280, 720
1486723891.3046722, 131, -20, -193, -143, -61, -8, -17, -8, 1280, 720
1486723891.3046932, 100, -26, -211, -138, -27, 1, -11, -16, 1280, 720
1486723891.3047147, 93, -26, -218, -117, -39, -15, -16, -10, 1280, 720
1486723891.304754, 126, -29, -212, -122, -85, -14, -9, -12, 1280, 720
1486723891.3047798, 137, -29, -202, -135, -98, -25, -19, -16, 1280, 720
1486723891.3051336, 119, -29, -201, -148, -82, -14, -5, -3, 1280, 720
1486723891.305171, 91, -30, -213, -143, -29, -10, -14, -15, 1280, 720
1486723891.3051965, 94, -30, -213, -121, -51, -16, -17, -18, 1280, 720
1486723891.305218, 134, -26, -202, -113, -77, -26, -17, -13, 1280, 720
1486723891.3052385, 137, -25, -200, -137, -93, -17, -16, -14, 1280, 720
1486723891.3052585, 109, -25, -195, -143, -48, -7, -13, -12, 1280, 720
1486723891.3052785, 86, -29, -212, -131, -15, -6, -11, -16, 1280, 720
1486723891.3052979, 96, -29, -211, -115, -44, -12, -14, -14, 1280, 720
1486723891.305342, 133, -27, -198, -119, -94, -20, -9, -8, 1280, 720
1486723891.3053622, 146, -16, -196, -134, -94, -12, -18, -16, 1280, 720
1486723891.3053818, 119, -17, -202, -146, -52, -13, -11, -7, 1280, 720
1486723891.3054013, 97, -25, -219, -129, -31, 1, -16, -16, 1280, 720
1486723891.3054209, 99, -30, -217, -114, -48, -10, -13, -13, 1280, 720
1486723891.3054402, 131, -27, -206, -125, -96, -16, -14, -16, 1280, 720
1486723891.3054643, 133, -24, -198, -143, -95, -10, -9, -8, 1280, 720
1486723891.305485, 114, -24, -209, -144, -47, -5, -4, -1, 1280, 720
1486723891.3055046, 88, -29, -218, -124, -24, -8, -10, -4, 1280, 720
1486723891.3055239, 106, -24, -212, -114, -59, -16, -8, -13, 1280, 720
1486723891.3055434, 138, -22, -201, -126, -97, -7, -4, -10, 1280, 720
1486723891.305563, 147, -16, -195, -145, -85, -9, -9, -17, 1280, 720
1486723891.305585, 119, -20, -205, -143, -45, -3, -13, -10, 1280, 720
1486723891.3056047, 99, -27, -213, -125, -30, 1, -16, -16, 1280, 720
1486723891.3056235, 115, -25, -211, -112, -80, -14, -4, -11, 1280, 720
1486723891.3059633, 139, -19, -198, -132, -111, -14, -11, -12, 1280, 720
1486723891.3060007, 148, -10, -197, -158, -93, -10, -9, -8, 1280, 720
1486723891.3060257, 117, -14, -205, -152, -48, -6, -11, -8, 1280, 720
1486723891.3060503, 98, -18, -211, -138, -52, -2, -13, -12, 1280, 720
1486723891.3060713, 114, -20, -211, -127, -93, -18, -8, -13, 1280, 720
1486723891.3060918, 156, -17, -206, -139, -105, -21, -15, -12, 1280, 720
1486723891.306112, 152, -14, -208, -156, -85, -2, -7, -5, 1280, 720
1486723891.3061316, 114, -8, -212, -148, -43, -7, -13, -10, 1280, 720
1486723891.3061514, 99, -12, -219, -134, -47, -18, -15, -14, 1280, 720
1486723891.3061712, 124, -14, -223, -133, -83, -13, -11, -16, 1280, 720
1486723891.3061905, 151, -15, -212, -147, -114, -11, -10, -5, 1280, 720
1486723891.3062098, 140, -17, -206, -154, -83, -8, -11, -10, 1280, 720
1486723891.3062303, 109, -18, -219, -147, -50, -9, -12, -5, 1280, 720
1486723891.306251, 96, -25, -225, -120, -38, -2, -13, -12, 1280, 720
1486723891.306273, 130, -23, -217, -118, -80, -13, -10, -15, 1280, 720
1486723891.3062935, 157, -18, -214, -142, -114, -18, -12, -14, 1280, 720
1486723891.3063138, 141, -12, -209, -159, -74, -9, -11, -7, 1280, 720
1486723891.3063335, 95, -17, -218, -145, -29, -5, -10, -10, 1280, 720
1486723891.3063529, 97, -25, -222, -121, -36, -15, -15, -11, 1280, 720
1486723891.3063724, 127, -23, -214, -123, -74, -15, -9, -10, 1280, 720
1486723891.306391, 151, -15, -212, -147, -114, -11, -10, -5, 1280, 720
1486723891.3064103, 129, -22, -208, -151, -66, -2, -12, -6, 1280, 720
1486723891.3064294, 107, -21, -218, -136, -26, -6, -11, -8, 1280, 720
1486723891.3066094, 106, -25, -225, -120, -38, -13, -12, -5, 1280, 720
1486723891.3066378, 135, -24, -210, -113, -83, -24, -15, -10, 1280, 720
1486723891.306659, 146, -23, -206, -124, -84, -12, -11, -11, 1280, 720
1486723891.3066792, 120, -25, -205, -159, -74, -9, -11, -7, 1280, 720
1486723891.3066995, 97, -24, -213, -106, -8, -10, -14, -12, 1280, 720
1486723891.3067195, 103, -33, -212, -91, -37, -16, -9, -16, 1280, 720
1486723891.306739, 134, -33, -206, -99, -74, -15, -9, -10, 1280, 720
1486723891.3067586, 138, -20, -198, -124, -82, -7, -12, -7, 1280, 720
1486723891.3067782, 125, -22, -206, -131, -43, -8, -12, -12, 1280, 720
1486723891.3067973, 90, -24, -210, -108, -15, -6, -11, -8, 1280, 720
1486723891.3068166, 104, -31, -211, -98, -48, -12, -12, -12, 1280, 720
1486723891.3068361, 137, -26, -198, -99, -98, -20, -18, -10, 1280, 720
1486723891.3068557, 140, -26, -192, -121, -79, -18, -16, -10, 1280, 720
1486723891.306875, 108, -30, -199, -118, -36, -10, -22, -13, 1280, 720
1486723891.306894, 82, -26, -207, -99, -13, -12, -20, -17, 1280, 720
1486723891.3069139, 101, -28, -200, -97, -37, -16, -9, -16, 1280, 720
1486723891.306933, 124, -25, -194, -112, -89, -21, -12, -15, 1280, 720
1486723891.306952, 147, -23, -193, -132, -84, -17, -14, -12, 1280, 720
1486723891.3069713, 102, -22, -205, -142, -49, -8, -12, -12, 1280, 720
1486723891.3069906, 79, -27, -206, -117, -35, -10, -15, -16, 1280, 720
1486723891.3070097, 113, -20, -205, -103, -78, -17, -16, -3, 1280, 720
1486723891.3070288, 136, -18, -190, -115, -98, -22, -15, -14, 1280, 720
1486723891.3070476, 140, -9, -189, -133, -86, -18, -12, -13, 1280, 720
1486723891.3070667, 106, -16, -202, -130, -42, -3, -8, -10, 1280, 720
1486723891.3074, 95, -18, -212, -113, -35, -8, -16, -16, 1280, 720
1486723891.3074362, 110, -19, -205, -102, -79, -18, -17, -23, 1280, 720
1486723891.307461, 139, -23, -195, -120, -96, -13, -12, -19, 1280, 720
1486723891.3074827, 121, -16, -192, -139, -74, -15, -11, -14, 1280, 720
1486723891.307503, 86, -20, -201, -133, -32, -6, -10, -16, 1280, 720
1486723891.307523, 84, -22, -209, -108, -28, -11, -11, -15, 1280, 720
1486723891.3075428, 114, -25, -197, -93, -61, -17, -16, -3, 1280, 720
1486723891.3075674, 136, -21, -187, -108, -84, -11, -1, -11, 1280, 720
1486723891.3075876, 122, -18, -185, -115, -47, -11, -10, -13, 1280, 720
1486723891.3076067, 83, -28, -198, -99, -10, -4, -8, -10, 1280, 720
1486723891.3076262, 95, -21, -197, -98, -22, -7, -12, -14, 1280, 720
1486723891.3076463, 114, -4, -196, -109, -56, -17, -10, -13, 1280, 720
1486723891.3076699, 124, 7, -175, -128, -81, -9, -12, -19, 1280, 720
1486723891.3076894, 111, 21, -171, -159, -58, -10, -10, -13, 1280, 720
1486723891.3077087, 52, 31, -156, -157, -23, -8, -9, -13, 1280, 720
1486723891.3077278, 36, 32, -135, -146, -28, -15, -12, -13, 1280, 720
1486723891.3077483, 42, 36, -119, -155, -63, -15, -13, -20, 1280, 720
1486723891.3077683, 41, 54, -82, -187, -89, -11, -11, -19, 1280, 720
1486723891.3077915, 7, 53, -67, -196, -36, -7, -13, -16, 1280, 720
1486723891.3078108, -70, 49, -33, -180, -8, -9, -16, -17, 1280, 720
1486723891.30783, -91, 52, -8, -170, -18, -13, -18, -16, 1280, 720
1486723891.307849, -97, 49, 9, -178, -57, -25, -14, -22, 1280, 720
1486723891.307868, -116, 55, 40, -216, -72, -17, -10, -14, 1280, 720
1486723891.308167, -161, 60, 64, -233, -23, -10, -13, -21, 1280, 720
1486723891.308196, -213, 61, 74, -221, 11, -9, -17, -14, 1280, 720
1486723891.3082173, -247, 55, 103, -203, -18, -24, -15, -15, 1280, 720
1486723891.3082376, -244, 59, 141, -213, -61, -19, -10, -16, 1280, 720
1486723891.3082573, -251, 68, 154, -248, -65, -10, -11, -13, 1280, 720
1486723891.3082767, -286, 53, -67, -196, -36, -7, -13, -16, 1280, 720
1486723891.3083239, -336, 55, 162, -240, -1, -10, -11, -15, 1280, 720
1486723891.3083444, -341, 52, 182, -214, -19, -16, -6, -18, 1280, 720
1486723891.308364, -332, 45, 201, -215, -61, -23, -8, -15, 1280, 720
1486723891.3083837, -327, 48, 210, -239, -53, -8, -9, -13, 1280, 720
1486723891.308403, -361, 42, 202, -229, -4, -3, -19, -12, 1280, 720
1486723891.308422, -388, 30, 188, -207, 7, -9, -12, -13, 1280, 720
1486723891.3084412, -362, 28, 181, -200, -34, -22, -8, -12, 1280, 720
1486723891.30846, -332, 26, 182, -206, -63, -20, -13, -15, 1280, 720
1486723891.308479, -318, 22, 176, -248, -65, -10, -11, -13, 1280, 720
1486723891.3085146, -325, 27, 155, -198, -8, -7, -10, -2, 1280, 720
1486723891.308539, -321, 13, 135, -176, 12, -9, -4, -12, 1280, 720
1486723891.3085601, -290, 15, 121, -161, -19, -16, -6, -18, 1280, 720
1486723891.3085806, -241, 23, 112, -182, -58, -17, -11, -10, 1280, 720
1486723891.3086023, -220, 31, 105, -191, -42, -8, -4, -2, 1280, 720
1486723891.3086424, -238, 23, 81, -175, 22, -3, -19, -12, 1280, 720
1486723891.3086672, -215, 24, 52, -155, 11, -7, -8, -19, 1280, 720
1486723891.3086867, -176, 17, 39, -140, -32, -15, -9, -17, 1280, 720
1486723891.308976, -123, 16, 33, -141, -43, -17, -9, -13, 1280, 720
1486723891.3090296, -119, 21, 18, -158, -30, -7, -3, -11, 1280, 720
1486723891.3090737, -127, 21, -17, -160, 7, -3, -13, -5, 1280, 720
1486723891.3090951, -116, 16, -37, -129, 2, -11, -11, -15, 1280, 720
1486723891.3091156, -70, 9, -42, -114, -31, -16, -15, -16, 1280, 720
1486723891.309136, -35, 9, -49, -132, -55, -10, -16, -11, 1280, 720
1486723891.3091557, -32, 13, -64, -149, -27, -9, -13, -13, 1280, 720
1486723891.3091748, -43, 12, -84, -137, 12, -9, -12, -12, 1280, 720
1486723891.309194, -37, 16, -103, -117, 6, -3, -6, -17, 1280, 720
1486723891.309213, 2, 11, -102, -107, -32, -16, -8, -10, 1280, 720
1486723891.3092325, 33, 15, -100, -122, -56, -12, -2, -15, 1280, 720
1486723891.3092518, 31, 16, -105, -134, -12, -8, -12, -7, 1280, 720
1486723891.309271, -3, 12, -124, -124, 20, -7, -11, -5, 1280, 720
1486723891.3092902, 3, 10, -138, -108, 4, -3, -3, -7, 1280, 720
1486723891.3093095, 25, 4, -134, -104, -26, -9, -4, -9, 1280, 720
1486723891.3093283, 42, 11, -129, -123, -40, -10, -9, -11, 1280, 720
1486723891.3093512, 24, 11, -132, -134, 5, 1, -12, -7, 1280, 720
1486723891.3093724, 2, 12, -142, -116, 28, -6, -10, -5, 1280, 720
1486723891.309392, -10, 3, -143, -96, 4, -6, -11, -8, 1280, 720
1486723891.3094108, 31, 7, -134, -108, -37, -9, -10, -12, 1280, 720
1486723891.3094497, 65, 22, -128, -140, -37, -9, -7, -8, 1280, 720
1486723891.3123808, 16, 15, -136, -145, 3, 4, -10, -13, 1280, 720
1486723891.3124177, -7, 14, -139, -133, 20, 9, -8, -11, 1280, 720
1486723891.3124428, -1, 7, -136, -126, -14, -8, -13, -11, 1280, 720
1486723891.3124692, 25, 9, -110, -118, -45, -12, -3, -5, 1280, 720
1486723891.3124905, 14, 20, -90, -141, -40, 0, -8, -12, 1280, 720
1486723891.3125107, -13, 18, -84, -149, -7, -6, -13, -13, 1280, 720
1486723891.3125303, -79, 14, -69, -131, 17, 1, -14, -13, 1280, 720
1486723891.3125498, -93, 3, -39, -115, -14, -5, -4, -14, 1280, 720
1486723891.3125694, -98, 4, -12, -131, -40, -4, -10, -8, 1280, 720
1486723891.3125887, -130, 4, 25, -158, -41, -3, -11, -12, 1280, 720
1486723891.3126082, -190, 7, 46, -176, -8, -8, -13, -11, 1280, 720
1486723891.3126276, -255, 3, 68, -161, 17, -7, -11, -10, 1280, 720
1486723891.3126464, -268, -15, 97, -124, -2, -13, -13, -11, 1280, 720
1486723891.3126657, -286, -19, 146, -125, -19, -12, -17, -17, 1280, 720
1486723891.3126848, -314, -16, 164, -147, -4, -6, -7, -7, 1280, 720
1486723891.3127038, -373, -20, 176, -144, 34, -3, -14, -7, 1280, 720
1486723891.3127232, -397, -30, 179, -115, 57, -14, -16, -13, 1280, 720
1486723891.3127422, -391, -37, 195, -104, 10, -14, -21, -10, 1280, 720
1486723891.3127618, -364, -37, 205, -108, -5, -13, -19, -14, 1280, 720
1486723891.312783, -372, -46, 200, -130, 18, -12, -17, -8, 1280, 720
1486723891.3128028, -396, -42, 187, -120, 47, -6, -20, -10, 1280, 720
1486723891.3128219, -390, -50, 166, -89, 60, -13, -14, -13, 1280, 720
1486723891.3128407, -268, -15, 97, -124, -2, -13, -9, -9, 1280, 720
1486723891.3131783, -303, -56, 145, -84, -4, -21, -13, -4, 1280, 720
1486723891.3132155, -286, -55, 125, -107, 9, -9, -17, -2, 1280, 720
1486723891.3132405, -292, -48, 176, -144, 34, -3, -14, -7, 1280, 720
1486723891.3132627, -286, -47, 83, -79, 32, -13, -10, 4, 1280, 720
1486723891.3132834, -226, -52, 72, -66, -6, -18, -13, -9, 1280, 720
1486723891.3133035, -182, -50, 68, -108, -5, -13, -19, -14, 1280, 720
1486723891.3133237, -173, -42, 50, -95, -12, -5, -15, -13, 1280, 720
1486723891.3133435, -177, -40, 22, -90, 23, -3, -17, -18, 1280, 720
1486723891.3133628, -163, -45, 3, -64, 60, -13, -14, -13, 1280, 720
1486723891.3133867, -103, -46, -12, -63, -26, -14, -14, -13, 1280, 720
1486723891.313407, -59, -39, -23, -87, -57, -17, -14, -19, 1280, 720
1486723891.3134265, -49, -33, -45, -97, 245, -9, -17, -2, 1280, 720
1486723891.3134458, -54, -36, -69, -88, -1, -14, -15, -11, 1280, 720
1486723891.3134654, -26, -34, -83, -66, -17, -21, -14, -8, 1280, 720
1486723891.3134844, 23, -38, -92, -64, -61, -18, -13, -9, 1280, 720
1486723891.3135037, 51, -37, -97, -81, -70, -21, -10, -9, 1280, 720
1486723891.3135233, 44, -32, -106, -90, -37, -8, -8, -6, 1280, 720
1486723891.3135421, 19, -34, -130, -78, -6, -10, -18, -18, 1280, 720
1486723891.3135624, 43, -37, -145, -63, -24, -10, -9, -13, 1280, 720
1486723891.3135836, 88, -37, -143, -59, -70, -20, -4, -14, 1280, 720
1486723891.3136034, 106, -34, -140, -77, -64, -17, -14, -19, 1280, 720
1486723891.313625, 87, -26, -155, -92, -30, -21, -19, -17, 1280, 720
1486723891.3136451, 66, -34, -173, -72, -4, -19, -18, -17, 1280, 720
1486723891.3140078, 73, -38, -172, -49, -21, -21, -14, -8, 1280, 720
1486723891.3140452, 115, -40, -166, -56, -57, -17, -14, -14, 1280, 720
1486723891.3140702, 127, -28, -166, -81, -72, -19, -14, -13, 1280, 720
1486723891.3140917, 103, -27, -178, -88, -24, -16, -8, -6, 1280, 720
1486723891.3141122, 85, -28, -191, -73, 6, -12, -15, -17, 1280, 720
1486723891.3141322, 91, -27, -196, -64, -33, -28, -16, -19, 1280, 720
1486723891.3141518, 126, -26, -185, -68, -66, -17, -11, -14, 1280, 720
1486723891.314171, 141, -26, -181, -81, -51, -16, -15, -12, 1280, 720
1486723891.3141909, 106, -28, -191, -86, -4, -4, -11, -6, 1280, 720
1486723891.3142104, 91, -30, -202, -67, -252, -19, -18, -17, 1280, 720
1486723891.3142297, 103, -33, -203, -50, -26, -20, -12, -11, 1280, 720
1486723891.3142543, 137, -29, -194, -68, -60, -24, -16, -15, 1280, 720
1486723891.3142743, 140, -23, -193, -87, -49, -15, -14, -13, 1280, 720
1486723891.3142939, 113, -24, -197, -85, -22, -9, -11, 8, 1280, 720
1486723891.3143127, 91, -27, -199, -67, -4, -16, -8, -2, 1280, 720
1486723891.314332, 124, -27, -202, -56, -44, -20, -13, -19, 1280, 720
1486723891.314351, 140, -30, -186, -63, -65, -17, -12, -15, 1280, 720
1486723891.3143704, 147, -23, -184, -79, -52, -19, -19, 2, 1280, 720
1486723891.314392, 110, -29, -196, -72, -7, -12, -22, -16, 1280, 720
1486723891.3144119, 113, -30, -199, -51, 5, -11, -16, -15, 1280, 720
1486723891.3144352, 123, -27, -189, -49, -42, -18, -14, -16, 1280, 720
1486723891.3144565, 148, -23, -181, -59, -52, -20, -20, -9, 1280, 720
1486723891.3144758, 130, -19, -184, -73, -25, -11, -18, -12, 1280, 720
1486723891.3144944, 93, -32, -197, -64, 8, -10, -20, -21, 1280, 720
1486723891.314825, 85, -35, -197, -39, 0, -15, -18, -5, 1280, 720
1486723891.314875, 119, -35, -191, -37, -29, -19, -10, -6, 1280, 720
1486723891.3149004, 139, -28, -181, -53, -57, -13, -17, -7, 1280, 720
1486723891.3149226, 130, -25, -185, -71, -30, -9, -14, 2, 1280, 720
1486723891.3149428, 105, -29, -194, -63, 11, -8, -13, -10, 1280, 720
1486723891.3149624, 87, -35, -196, -41, 10, -2, -2, -6, 1280, 720
1486723891.3149824, 133, -32, -197, -42, -27, -11, -3, -3, 1280, 720
1486723891.315002, 153, -22, -194, -67, -53, -11, -7, -3, 1280, 720
1486723891.3150215, 121, -23, -192, -86, -22, -12, -10, -9, 1280, 720
1486723891.3150408, 92, -27, -206, -73, 12, -5, -13, -10, 1280, 720
1486723891.3150604, 105, -32, -213, -58, -9, -13, -9, -4, 1280, 720
1486723891.3150802, 125, -33, -197, -53, -38, -19, -19, -18, 1280, 720
1486723891.3150997, 140, -29, -194, -72, -52, -15, -11, -15, 1280, 720
1486723891.3151188, 119, -25, -185, -71, -30, -9, -14, -13, 1280, 720
1486723891.3151379, 96, -22, -203, -83, -1, -14, -11, -12, 1280, 720
1486723891.3151567, 104, -28, -204, -60, -18, -12, -10, -9, 1280, 720
1486723891.3151758, 130, -23, -194, -58, -27, -11, -3, -3, 1280, 720
1486723891.3151946, 146, -19, -188, -77, -49, -5, -5, -8, 1280, 720
1486723891.3152137, 116, -21, -193, -92, -16, -13, -12, -16, 1280, 720
1486723891.3152325, 95, -26, -211, -79, 16, -9, -13, -10, 1280, 720
1486723891.3152518, 110, -23, -212, -64, -19, -16, -14, -11, 1280, 720
1486723891.3152704, 147, -22, -199, -69, -57, -18, -10, -8, 1280, 720
1486723891.3152893, 152, -22, -195, -87, -60, -16, -14, -15, 1280, 720
1486723891.315457, 119, -15, -200, -94, -18, -8, -11, -7, 1280, 720
1486723891.3154838, -70, -184, 23, 134, 53, -9, -14, -20, 1280, 720
1486723891.3155081, -145, -181, 21, 126, 133, 11, -10, -11, 1280, 720
1486723891.315529, -211, -184, 15, 129, 136, 2, -13, -9, 1280, 720
1486723891.3248224, -160, -184, 13, 146, 46, -21, -10, -21, 1280, 720
1486723891.3250878, -78, -183, 26, 140, -19, -22, -15, -20, 1280, 720
1486723891.326273, -64, -176, 31, 121, 41, -10, -10, -14, 1280, 720
1486723891.3324583, -171, -172, 32, 119, 116, -2, -14, -13, 1280, 720
1486723891.3330624, -208, -183, 19, 145, 118, -6, -5, -12, 1280, 720
1486723891.335067, -156, -184, 22, 164, 31, -25, -5, -17, 1280, 720
1486723891.3473022, -86, -187, 33, 158, 3, -23, -10, -15, 1280, 720
1486723891.3482342, -94, -181, 37, 132, 55, -9, -16, -9, 1280, 720
1486723891.3507538, -190, -184, 26, 126, 127, 5, -10, -11, 1280, 720
1486723891.3622296, -204, -188, 22, 147, 116, -4, -14, -19, 1280, 720
1486723891.363225, -147, -185, 20, 158, 9, -25, -9, -21, 1280, 720
1486723891.3659527, -65, -178, 29, 147, -1, -28, -15, -20, 1280, 720
1486723891.369742, -89, -169, 30, 125, 75, -11, -14, -10, 1280, 720
1486723891.37065, -200, -179, 25, 129, 144, 9, -12, -12, 1280, 720
1486723891.3736417, -209, -180, 18, 144, 98, -16, -5, -12, 1280, 720
1486723891.3846645, -133, -182, 25, 155, 8, -24, 1, -18, 1280, 720
1486723891.3898716, -66, -175, 33, 138, -4, -19, -8, -10, 1280, 720
1486723891.3952472, -109, -171, 30, 118, 71, -4, -7, -6, 1280, 720
1486723891.3998303, -204, -172, 29, 122, 138, 4, -14, -13, 1280, 720
1486723891.400112, -205, -178, 25, 144, 90, -9, -7, -16, 1280, 720
1486723891.4060113, -118, -176, 28, 150, 9, -15, 0, -14, 1280, 720
1486723891.406852, -65, -178, 29, 147, -1, -28, -14, -20, 1280, 720
1486723891.4071634, -112, -170, 39, 124, 89, 3, -10, -7, 1280, 720
1486723891.408274, -196, -178, 26, 127, 147, 1, -14, -9, 1280, 720
1486723891.4118118, -209, -180, 18, 144, 98, -16, -12, -8, 1280, 720
1486723891.4223247, -105, -180, 32, 160, -3, -25, -5, -13, 1280, 720
1486723891.4226851, -61, -168, 39, 132, 4, -12, -7, -17, 1280, 720
1486723891.4332027, -112, -167, 33, 118, 71, -4, -7, -6, 1280, 720
1486723891.4371488, -190, -165, 27, 126, 121, 6, -11, -12, 1280, 720
1486723891.4380853, -177, -172, 23, 145, 55, -14, -15, -14, 1280, 720
1486723891.4443831, -81, -174, 25, 149, 9, -15, 0, -14, 1280, 720
1486723891.4446487, -56, -161, 35, 134, 3, -16, -13, -11, 1280, 720
1486723891.4456663, -122, -160, 40, 132, 122, -3, -19, -7, 1280, 720
1486723891.4497442, -196, -168, 28, 143, 143, 1, -14, -9, 1280, 720
1486723891.4597237, -176, -170, 28, 158, 59, -21, -16, -17, 1280, 720
1486723891.4606884, -65, -178, 31, 154, -13, -28, -2, -18, 1280, 720
1486723891.4618044, -61, -169, 34, 133, 20, -14, -7, -17, 1280, 720
1486723891.4748266, -133, -161, 34, 115, 119, 0, -16, -16, 1280, 720
1486723891.475724, -204, -171, 24, 137, 116, 2, -16, -9, 1280, 720
1486723891.4772794, -164, -177, 30, 157, 46, -21, -9, -16, 1280, 720
1486723891.489748, -71, -170, 38, 148, -16, -29, -11, -17, 1280, 720
1486723891.4910562, -68, -165, 45, 126, 27, -15, -12, -6, 1280, 720
1486723891.4972346, -143, -163, 38, 119, 119, -6, -11, -8, 1280, 720
1486723891.4981403, -211, -167, 27, 139, 127, -8, -11, -14, 1280, 720
1486723891.4985693, -156, -172, 25, 153, 32, -24, -5, -17, 1280, 720
1486723891.5006611, -73, -164, 37, 145, -27, -28, -2, -18, 1280, 720
1486723891.5122268, -70, -158, 43, 116, 37, -13, -10, -10, 1280, 720
1486723891.5129476, -167, -155, 40, 116, 107, 1, -14, -7, 1280, 720
1486723891.5142725, -196, -160, 37, 136, 98, 2, -16, -9, 1280, 720
1486723891.5198326, -146, -161, 35, 144, 1, -34, -12, -12, 1280, 720
1486723891.5206738, -71, -160, 39, 131, -26, -27, -8, -16, 1280, 720
1486723891.522775, -75, -153, 45, 109, 42, -5, -11, -6, 1280, 720
1486723891.5356634, -171, -150, 41, 110, 114, 2, -10, -11, 1280, 720
1486723891.5374243, -188, -159, 36, 136, 94, -15, -11, -14, 1280, 720
1486723891.537494, -130, -160, 33, 152, -8, -29, -12, -17, 1280, 720
1486723891.5497346, -54, -168, 41, 145, -16, -19, -10, -17, 1280, 720
1486723891.5507326, -84, -164, 43, 121, 59, -8, -16, -15, 1280, 720
1486723891.5511096, -182, -161, 36, 120, 127, 1, -14, -7, 1280, 720
1486723891.5572672, -195, -168, 32, 141, 74, -18, -23, -14, 1280, 720
1486723891.5581977, -120, -162, 36, 149, -13, -24, -16, -27, 1280, 720
1486723891.562737, -54, -166, 41, 134, -23, -23, -8, -16, 1280, 720
1486723891.5722132, -93, -163, 51, 119, 65, -4, -16, -14, 1280, 720
1486723891.5725098, -187, -161, 40, 124, 123, -4, -15, -10, 1280, 720
1486723891.5782905, -190, -163, 34, 148, 75, -9, -12, -11, 1280, 720
1486723891.5872545, -110, -162, 37, 147, -7, -27, -8, -12, 1280, 720
1486723891.5882196, -42, -157, 40, 127, -28, -21, -13, -10, 1280, 720
1486723891.5895402, -81, -151, 39, 107, 81, 1, -14, -9, 1280, 720
1486723891.5990083, -177, -160, 27, 113, 129, 7, -10, -4, 1280, 720
1486723891.6024137, -170, -158, 22, 130, 55, -13, -11, -10, 1280, 720
1486723891.6026905, -74, -157, 21, 137, -17, -23, -7, -15, 1280, 720
1486723891.6096387, -27, -154, 38, 124, 3, -18, -14, -15, 2510, 1390
1486723891.6100326, -96, -154, 30, 106, 89, -1, -18, -9, 2510, 1390
1486723891.61093, -168, -153, 22, 113, 107, -5, -19, -13, 2510, 1390
1486723891.625856, -162, -156, 15, 131, 44, -19, -12, -7, 2510, 1390
1486723891.6267629, -58, -155, 29, 130, -29, -25, -12, -20, 2510, 1390
1486723891.6279821, -33, -149, 33, 105, -9, -17, -14, -10, 2510, 1390
1486723891.6322167, -107, -141, 32, 88, 88, 2, -18, -10, 2510, 1390
1486723891.6329503, -185, -146, 24, 100, 106, 2, -15, -6, 2510, 1390
1486723891.6333678, -151, -149, 19, 121, 25, -17, -18, -18, 2510, 1390
1486723891.6341188, -48, -157, 21, 137, -17, -23, -7, -15, 2510, 1390
1486723891.6472778, -47, -141, 34, 99, 7, -15, -16, -6, 2510, 1390
1486723891.6476634, -121, -140, 31, 86, 101, 4, -17, -5, 2510, 1390
1486723891.6485443, -178, -138, 22, 102, 107, -5, -19, -13, 2510, 1390
1486723891.662417, -134, -147, 24, 131, 30, -23, -10, -14, 2510, 1390
1486723891.6627488, -45, -143, 37, 132, -29, -28, -13, -15, 2510, 1390
1486723891.6635468, -35, -137, 37, 109, -242, -17, -14, -10, 2510, 1390
1486723891.6697254, -129, -140, 34, 96, 98, -1, -20, -8, 2510, 1390
1486723891.670092, -195, -142, 27, 115, 102, -7, -16, -17, 2510, 1390
1486723891.671083, -124, -143, 28, 127, 11, -17, -18, -18, 2510, 1390
1486723891.6848533, -48, -136, 40, 121, -42, -25, -17, -14, 2510, 1390
1486723891.6852303, -52, -133, 42, 94, 20, -6, -14, -13, 2510, 1390
1486723891.6860592, -146, -133, 37, 94, 94, 2, -17, -5, 2510, 1390
1486723891.6995585, -183, -135, 34, 118, 85, -3, -13, -14, 2510, 1390
1486723891.7002957, -117, -140, 32, 131, -11, -20, -6, -5, 2510, 1390
1486723891.701093, -46, -136, 43, 124, -28, -28, -15, -16, 2510, 1390
1486723891.707223, -51, -137, 44, 102, 35, 1, -14, -9, 2510, 1390
1486723891.70761, -162, -137, 36, 102, 101, 13, -9, -7, 2510, 1390
1486723891.7085886, -175, -139, 29, 114, 95, -4, -10, -11, 2510, 1390
1486723891.722225, -104, -136, 32, 125, -22, -28, -11, -21, 2510, 1390
1486723891.7225912, -40, -138, 44, 115, -22, -21, -8, -14, 2510, 1390
1486723891.7234907, -63, -123, 47, 93, 46, -4, -10, -4, 2510, 1390
1486723891.7372165, -177, -128, 35, 97, 108, 0, -15, -10, 2510, 1390
1486723891.7375798, -174, -134, 34, 117, 60, -13, -21, -12, 2510, 1390
1486723891.7386284, -91, -133, 33, 125, -30, -29, -10, -13, 2510, 1390
1486723891.7451427, -32, -133, 38, 107, -40, -22, -7, -11, 2510, 1390
1486723891.745531, -87, -128, 41, 87, 37, -2, -15, -10, 2510, 1390
1486723891.7458608, -160, -125, 30, 88, 110, 13, -9, -7, 2510, 1390
1486723891.7597258, -175, -129, 32, 110, 53, -20, -16, -8, 2510, 1390
1486723891.7601137, -85, -135, 33, 117, -20, -22, -8, -3, 2510, 1390
1486723891.7610717, -32, -138, 37, 98, -34, -25, -19, -14, 2510, 1390
1486723891.774694, -98, -134, 34, 83, 72, -2, -16, -10, 2510, 1390
1486723891.7751904, -169, -133, 25, 88, 111, -4, -21, -10, 2510, 1390
1486723891.7757666, -167, -142, 23, 103, 42, -17, -15, -18, 2510, 1390
1486723891.7821672, -74, -137, 35, 113, -32, -31, -8, -19, 2510, 1390
1486723891.7825654, -40, -128, 47, 99, -14, -16, -15, -15, 2510, 1390
1486723891.783479, -103, -133, 42, 88, 86, -2, -15, -10, 2510, 1390
1486723891.7972012, -176, -133, 34, 97, 106, -7, -13, -8, 2510, 1390
1486723891.7975702, -167, -134, 31, 113, 45, -20, -21, -23, 2510, 1390
1486723891.7986288, -71, -135, 38, 112, -38, -27, -13, -21, 2510, 1390
1486723891.8121452, -47, -126, 46, 91, -9, -18, -17, -14, 2510, 1390
1486723891.8125303, -129, -126, 46, 77, 93, 0, -23, -13, 2510, 1390
1486723891.8133905, -188, -127, 29, 86, 94, -5, -23, -15, 2510, 1390
1486723891.819696, -154, -128, 27, 100, -2, -25, -15, -17, 2510, 1390
1486723891.8200328, -48, -129, 34, 99, -53, -28, -16, -22, 2510, 1390
1486723891.82109, -55, -128, 43, 85, 7, -14, -17, -13, 2510, 1390
1486723891.8357537, -126, -128, 44, 77, 96, -4, -21, -11, 2510, 1390
1486723891.8358169, -189, -128, 40, 96, 104, -9, -26, -13, 2510, 1390
1486723891.8360887, -137, -132, 37, 110, 12, -27, -13, -23, 2510, 1390
1486723891.8573406, -56, -130, 44, 99, -46, -22, -16, -20, 2510, 1390
1486723891.8578136, -53, -126, 48, 76, -6, -13, -20, -16, 2510, 1390
1486723891.8584979, -118, -120, 42, 74, 93, -3, -21, -4, 2510, 1390
1486723891.859092, -185, -124, 25, 84, 78, -7, -23, -15, 2510, 1390
1486723891.864959, -126, -125, 24, 90, -20, -27, -16, -22, 2510, 1390
1486723891.8654833, -53, -121, 34, 83, -75, -22, -15, -19, 2510, 1390
1486723891.872255, -62, -127, 48, 86, 13, -16, -16, -15, 2510, 1390
1486723891.8726153, -157, -144, 36, 108, 97, 7, -17, -5, 2510, 1390
1486723891.8731604, -183, -170, 8, 137, 96, -8, -17, -15, 2510, 1390
1486723891.8740394, -123, -132, 37, 110, 12, -27, -13, -15, 2510, 1390
1486723891.8872313, -52, -210, -4, 175, -8, -19, -7, -17, 2510, 1390
1486723891.8876214, -53, -231, -14, 174, 75, -7, -18, -13, 2510, 1390
1486723891.888603, -160, -254, 42, 74, 93, -3, -21, -4, 2510, 1390
1486723891.894755, -176, -278, -61, 216, 115, -14, -7, -13, 2510, 1390
1486723891.8953915, -109, -295, -66, 239, 20, -24, -6, -18, 2510, 1390
1486723891.8959432, -29, -303, -68, 83, -75, -22, -15, -19, 2510, 1390
1486723891.9097133, -58, -309, -75, 239, 101, -7, -8, -4, 2510, 1390
1486723891.9101002, -154, -327, -83, 254, 182, 8, -16, -15, 2510, 1390
1486723891.9111023, -164, -340, -94, 291, 139, -8, -17, -15, 2510, 1390
1486723891.9247148, -91, -343, -90, 304, 42, -26, -14, -19, 2510, 1390
1486723891.9249623, -19, -341, -83, 289, 28, -17, -9, -11, 2510, 1390
1486723891.9261177, -56, -335, -88, 174, 75, -7, -18, -13, 2510, 1390
1486723891.9322693, -127, -333, -99, 265, 167, -3, -18, -13, 2510, 1390
1486723891.9326684, -141, -340, -103, 284, 111, -16, -8, -12, 2510, 1390
1486723891.9333243, -49, -338, -94, 287, 30, -23, -6, -18, 2510, 1390
1486723891.9470456, 9, -333, -85, 270, 33, -15, -15, -13, 2510, 1390
1486723891.9476159, -49, -327, -94, 252, 129, 6, -20, -10, 2510, 1390
1486723891.9485579, -128, -329, -105, 258, 160, 8, -16, -15, 2510, 1390
1486723891.9622784, -115, -333, -105, 282, 94, -8, -9, -15, 2510, 1390
1486723891.9626644, -28, -335, -102, 285, 26, -29, -16, -18, 2510, 1390
1486723891.9636028, 15, -327, -97, 267, 44, -15, -14, -16, 2510, 1390
1486723891.9697213, -52, -326, -90, 250, 142, 3, -13, -8, 2510, 1390
1486723891.9700794, -133, -327, -103, 260, 163, 2, -16, -14, 2510, 1390
1486723891.9711397, -123, -336, -106, 274, 81, -16, -8, -12, 2510, 1390
1486723891.9847088, -23, -337, -102, 272, 10, -29, -10, -20, 2510, 1390
1486723891.9850745, 2, -322, -93, 251, 46, -9, -8, -15, 2510, 1390
1486723891.9860368, -73, -322, -95, 242, 151, 7, -20, -10, 2510, 1390
1486723891.9997025, -146, -326, -104, 253, 141, 5, -18, -22, 2510, 1390
1486723892.000096, -105, -324, -104, 268, 61, -18, -15, -18, 2510, 1390
1486723892.001109, 1, -316, -99, 265, 3, -25, -15, -21, 2510, 1390
1486723892.0072033, 7, -314, -93, 240, 60, -11, -17, -10, 2510, 1390
1486723892.0076094, -69, -313, -96, 235, 149, 7, -16, -11, 2510, 1390
1486723892.0084257, -138, -312, -103, 245, 148, 3, -16, -14, 2510, 1390
1486723892.0222435, -80, -318, -101, 263, 49, -22, -11, -21, 2510, 1390
1486723892.0226388, 1, -317, -95, 252, 2, -22, -7, -13, 2510, 1390
1486723892.023649, 9, -307, -89, 234, 57, -11, -20, -15, 2510, 1390
1486723892.0372498, -88, -303, -97, 230, 126, -4, -6, 0, 2510, 1390
1486723892.0376167, -143, -304, -105, 247, 121, 1, -12, -14, 2510, 1390
1486723892.0386117, -72, -313, -104, 263, 39, -25, -15, -20, 2510, 1390
1486723892.0447743, 0, -311, -94, 256, -3, -31, -11, -27, 2510, 1390
1486723892.0523052, -4, -306, -91, 233, 53, -11, -12, -14, 2510, 1390
1486723892.0526452, -100, -309, -103, 235, 137, 7, -16, -11, 2510, 1390
1486723892.0597556, -115, -316, -114, 263, 126, -8, -5, -7, 2510, 1390
1486723892.060145, -54, -319, -108, 279, 34, -27, -9, -17, 2510, 1390
1486723892.0608735, 26, -320, -101, 267, 10, -19, -5, -13, 2510, 1390
1486723892.07481, 14, -313, -109, 235, 71, -6, -15, -4, 2510, 1390
1486723892.0752056, -97, -308, -105, 236, 142, 5, -16, -13, 2510, 1390
1486723892.076096, -117, -315, -113, 263, 116, -11, -11, -14, 2510, 1390
1486723892.0823145, -34, -316, -113, 270, 11, -21, -4, -17, 2510, 1390
1486723892.0825644, 35, -312, -105, 258, 19, -21, -3, -20, 2510, 1390
1486723892.0833597, 2, -303, -101, 242, 81, -3, -13, -2, 2510, 1390
1486723892.097284, -101, -307, -106, 246, 151, 6, -16, -15, 2510, 1390
1486723892.09769, -105, -308, -108, 265, 95, -11, -13, -12, 2510, 1390
1486723892.0982428, -19, -306, -107, 270, 14, -32, -7, -25, 2510, 1390
1486723892.1049194, 38, -320, -101, 267, 10, -19, -5, -13, 2510, 1390
1486723892.112625, -19, -300, -98, 234, 100, 5, -15, -14, 2510, 1390
1486723892.1126912, -99, -304, -109, 235, 144, 5, -12, -8, 2510, 1390
1486723892.1135833, -105, -303, -113, 263, 116, -11, -11, -10, 2510, 1390
1486723892.1196585, -7, -297, -101, 268, 19, -26, -4, -12, 2510, 1390
1486723892.1203315, 54, -300, -94, 249, 29, -14, -8, -10, 2510, 1390
1486723892.1210618, -22, -297, -101, 242, 81, -3, -13, -2, 2510, 1390
1486723892.1347835, -95, -296, -108, 234, 137, 0, -11, -9, 2510, 1390
1486723892.135029, -81, -300, -112, 254, 70, -25, -9, -18, 2510, 1390
1486723892.1360157, 12, -297, -108, 256, 14, -32, -7, -25, 2510, 1390
1486723892.149633, 40, -294, -102, 235, 15, -14, -9, -14, 2510, 1390
1486723892.1501827, -27, -289, -109, 223, 125, 5, -14, -5, 2510, 1390
1486723892.1509974, -108, -298, -118, 238, 146, 5, -12, -8, 2510, 1390
1486723892.1572373, -78, -304, -125, 256, 70, -18, -9, -20, 2510, 1390
1486723892.1575477, 28, -300, -114, 251, -7, -20, -7, -19, 2510, 1390
1486723892.1584873, 40, -297, -102, 230, 38, -14, -8, -10, 2510, 1390
1486723892.1722367, -51, -293, -105, 222, 136, 9, -18, -13, 2510, 1390
1486723892.1726315, -108, -293, -115, 234, 143, -8, -15, -17, 2510, 1390
1486723892.1735744, -61, -296, -120, 249, 61, -21, -9, -18, 2510, 1390
1486723892.1872032, 30, -295, -115, 248, -8, -30, -8, -16, 2510, 1390
1486723892.187495, 31, -292, -106, 221, 36, -9, -7, -14, 2510, 1390
1486723892.1884346, -47, -295, -118, 216, 133, 5, -11, -16, 2510, 1390
1486723892.1949008, -101, -294, -125, 234, 145, -10, -20, -23, 2510, 1390
1486723892.1952734, -57, -297, -122, 253, 47, -30, -16, -27, 2510, 1390
1486723892.1960247, 33, -294, -116, 242, -8, -23, -12, -15, 2510, 1390
1486723892.2097502, 28, -290, -113, 220, 52, -12, -10, -11, 2510, 1390
1486723892.2101226, -52, -286, -117, 215, 132, 8, -11, -14, 2510, 1390
1486723892.2111351, -97, -293, -125, 235, 114, -8, -15, -17, 2510, 1390
1486723892.225365, -39, -297, -120, 252, 32, -27, -10, -18, 2510, 1390
1486723892.225787, 31, -292, -112, 242, 2, -20, -11, -15, 2510, 1390
1486723892.2261, 30, -282, -106, 221, 63, -8, -16, -14, 2510, 1390
1486723892.2322128, -67, -279, -109, 216, 130, -3, -15, -9, 2510, 1390
1486723892.2325962, -90, -285, -120, 235, 133, -4, -16, -22, 2510, 1390
1486723892.2335045, -29, -286, -115, 252, 13, -31, -11, -15, 2510, 1390
1486723892.2472627, 46, -285, -109, 234, 3, -30, -10, -19, 2510, 1390
1486723892.2476199, 21, -282, -103, 214, 76, -9, -9, -6, 2510, 1390
1486723892.2485874, -83, -279, -116, 212, 146, 6, -11, -6, 2510, 1390
1486723892.262287, -89, -280, -120, 227, 103, -12, -1, -9, 2510, 1390
1486723892.2626882, -17, -282, -124, 232, 1, -24, -15, -15, 2510, 1390
1486723892.2635121, 54, -281, -111, 223, 1, -20, -11, -15, 2510, 1390
1486723892.2697163, 9, -273, -106, 209, 75, -11, -15, -10, 2510, 1390
1486723892.2700834, -81, -278, -112, 213, 147, -5, -18, -16, 2510, 1390
1486723892.2711854, -95, -281, -116, 232, 82, -15, -8, -22, 2510, 1390
1486723892.2847564, -12, -278, -107, 238, 12, -27, -14, -17, 2510, 1390
1486723892.2853634, 41, -276, -95, 228, -15, -22, -17, -19, 2510, 1390
1486723892.2859244, -2, -267, -97, 205, 86, -5, -25, -11, 2510, 1390
1486723892.300547, -76, -271, -106, 207, 144, 1, -15, -10, 2510, 1390
1486723892.3009706, -88, -276, -109, 234, 72, -23, -19, -17, 2510, 1390
1486723892.3010082, 9, -273, -105, 235, 10, -33, -14, -19, 2510, 1390
1486723892.3072002, 59, -261, -100, 213, 17, -28, -11, -18, 2510, 1390
1486723892.3075976, -8, -255, -99, 201, 115, -2, -18, -14, 2510, 1390
1486723892.3086402, -87, -260, -105, 205, 132, 2, -15, -13, 2510, 1390
1486723892.3226128, -85, -271, -111, 230, 78, -19, -15, -21, 2510, 1390
1486723892.3226964, 14, -271, -103, 235, 11, -26, -8, -9, 2510, 1390
1486723892.3235333, 39, -269, -96, 215, 21, -10, -7, -12, 2510, 1390
1486723892.324426, -2, -267, -97, 205, 86, -5, -25, -11, 2510, 1390
1486723892.3371775, -105, -266, -103, 211, 133, -6, -17, -12, 2510, 1390
1486723892.3375466, -76, -266, -104, 230, 56, -26, -15, -14, 2510, 1390
1486723892.3386045, 9, -273, -105, 235, 10, -33, -14, -19, 2510, 1390
1486723892.3449385, 41, -259, -91, 211, 38, -13, -12, -23, 2510, 1390
1486723892.345348, -40, -260, -95, 202, 135, -4, -17, -6, 2510, 1390
1486723892.3461661, -103, -260, -105, 205, 132, 2, -15, -13, 2510, 1390
1486723892.359753, -71, -263, -98, 226, 48, -21, -4, -7, 2510, 1390
1486723892.3601213, 29, -264, -92, 223, -6, -32, -14, -17, 2510, 1390
1486723892.3611207, 37, -261, -89, 203, 21, -10, -7, -12, 2510, 1390
1486723892.3747625, -52, -259, -96, 192, 125, -6, -12, -3, 2510, 1390
1486723892.375154, -108, -267, -108, 207, 134, -8, -12, -7, 2510, 1390
1486723892.3760984, -49, -266, -104, 230, 56, -26, -15, -14, 2510, 1390
1486723892.382168, 26, -254, -86, 221, -24, -27, -6, -11, 2510, 1390
1486723892.3824947, 31, -249, -84, 197, 53, -15, -17, -10, 2510, 1390
1486723892.3836129, -61, -253, -93, 202, 135, -4, -17, -6, 2510, 1390
1486723892.3972287, -107, -254, -97, 208, 113, -8, -18, -9, 2510, 1390
1486723892.3976266, -50, -261, -95, 228, 23, -33, -8, -14, 2510, 1390
1486723892.3988473, 16, -259, -91, 215, 7, -32, -14, -17, 2510, 1390
1486723892.412233, 20, -250, -88, 189, 55, -9, -16, -13, 2510, 1390
1486723892.4126241, -83, -245, -90, 187, 122, -6, -20, -1, 2510, 1390
1486723892.4136324, -114, -256, -101, 204, 101, -19, -13, -8, 2510, 1390
1486723892.4196937, -38, -252, -95, 208, -6, -31, -9, -16, 2510, 1390
1486723892.4200892, 39, -243, -88, 191, -14, -31, -18, -20, 2510, 1390
1486723892.4209049, 22, -240, -89, 174, 69, -7, -18, -10, 2510, 1390
1486723892.4347165, -95, -242, -92, 179, 131, -1, -23, -17, 2510, 1390
1486723892.4351375, -98, -243, -101, 202, 96, -9, -11, -6, 2510, 1390
1486723892.4361334, -22, -243, -89, 219, -1, -25, -13, -20, 2510, 1390
1486723892.4499998, 42, -239, -81, 196, -6, -22, -13, -12, 2510, 1390
1486723892.4504054, -6, -234, -84, 177, 55, -10, -19, 0, 2510, 1390
1486723892.4511056, -96, -234, -91, 177, 130, 2, -15, -1, 2510, 1390
1486723892.46151, -116, -238, -96, 189, 75, -16, -6, -7, 2510, 50
1486723892.4653113, -15, -236, -90, 193, -7, -27, -4, -8, 2510, 50
1486723892.4655337, 43, -232, -82, 177, -10, -20, -10, -9, 2510, 50
1486723892.4723644, -16, -229, -82, 168, 95, 6, -15, -17, 2510, 50
1486723892.4727848, -91, -226, -91, 174, 148, 0, -15, -9, 2510, 50
1486723892.4735577, -90, -237, -96, 197, 62, -15, -11, -13, 2510, 50
1486723892.487714, 3, -237, -89, 201, -3, -33, -11, -13, 2510, 50
1486723892.487925, 38, -227, -82, 178, 13, -17, -11, -1, 2510, 50
1486723892.4888208, -26, -225, -84, 160, 112, 6, -17, 0, 2510, 50
1486723892.495203, -101, -224, -94, 170, 120, -7, -9, -9, 2510, 50
1486723892.4956944, -90, -232, -92, 191, 59, -19, -12, -13, 2510, 50
1486723892.4960327, 8, -231, -92, 191, -9, -31, -12, -11, 2510, 50
1486723892.5097456, 44, -224, -82, 175, 9, -21, -14, -17, 2510, 50
1486723892.5100741, -31, -222, -85, 165, 120, -4, -17, -5, 2510, 50
1486723892.5109324, -111, -230, -95, 173, 119, -4, -17, -18, 2510, 50
1486723892.524769, -79, -234, -97, 191, 48, -21, -12, -15, 2510, 50
1486723892.5251515, 27, -233, -89, 193, -16, -20, -6, -16, 2510, 50
1486723892.5261028, 45, -223, -86, 169, 30, -17, -11, -1, 2510, 50
1486723892.5322402, -41, -220, -88, 162, 121, 10, -18, -14, 2510, 50
1486723892.5326054, -111, -222, -91, 178, 128, 2, -17, -16, 2510, 50
1486723892.5334861, -45, -223, -97, 193, 45, -19, -12, -13, 2510, 50
1486723892.5472548, 38, -223, -88, 183, -16, -31, -14, -15, 2510, 50
1486723892.5476415, 48, -217, -86, 159, 29, -10, -13, -8, 2510, 50
1486723892.5485973, -50, -219, -93, 155, 102, -5, -21, -10, 2510, 50
1486723892.5621743, -106, -221, -100, 165, 121, 2, -19, -19, 2510, 50
1486723892.5625384, -56, -221, -94, 183, 30, -28, -10, -19, 2510, 50
1486723892.5635164, 32, -218, -83, 176, -18, -26, -12, -14, 2510, 50
1486723892.5697355, 31, -210, -79, 152, 37, -14, -17, -3, 2510, 50
1486723892.5701044, -75, -208, -80, 150, 109, 1, -21, -8, 2510, 50
1486723892.5708501, -111, -217, -86, 172, 101, -13, -17, -12, 2510, 50
1486723892.571727, -47, -223, -97, 193, 45, -22, -10, -14, 2510, 50
1486723892.5847054, 17, -214, -76, 176, -5, -30, -10, -6, 2510, 50
1486723892.5883934, 20, -212, -75, 156, 58, -6, -13, -9, 2510, 50
1486723892.5908248, -85, -208, -84, 155, 102, -5, -21, -10, 2510, 50
1486723892.600585, -103, -211, -90, 170, 105, -19, -16, -11, 2510, 50
1486723892.6013393, -34, -216, -89, 179, 3, -28, -11, -9, 2510, 50
1486723892.6015823, 46, -217, -81, 176, -18, -26, -12, -14, 2510, 50
1486723892.6079717, 13, -210, -77, 157, 68, -11, -10, -13, 2510, 50
1486723892.6086905, -93, -209, -82, 164, 140, 0, -15, -1, 2510, 50
1486723892.6089, -95, -214, -93, 176, 101, -13, -17, -12, 2510, 50
1486723892.6226096, -14, -217, -89, 186, 9, -18, -12, -13, 2510, 50
1486723892.6245327, 54, -204, -76, 165, -11, -18, -16, -9, 2510, 50
1486723892.6314073, -6, -199, -82, 139, 58, -6, -13, -9, 2510, 50
1486723892.6382043, -96, -206, -84, 149, 123, 4, -7, -6, 2510, 50
1486723892.6402104, -105, -210, -95, 169, 79, -15, -19, -13, 2510, 50
1486723892.6403446, -1, -206, -97, 172, 3, -28, -11, -9, 2510, 50
1486723892.6457508, 71, -200, -89, 153, -10, -20, -11, -12, 2510, 50
1486723892.6481, 4, -193, -91, 137, 82, -5, -17, -9, 2510, 50
1486723892.6481705, -77, -197, -97, 141, 139, -5, -15, -1, 2510, 50
1486723892.660776, -76, -201, -99, 163, 55, -24, -12, -13, 2510, 50
1486723892.6617706, 24, -198, -91, 160, 3, -27, -5, -15, 2510, 50
1486723892.6618404, 49, -196, -86, 144, -1, -18, -12, -9, 2510, 50
1486723892.6757932, -15, -187, -90, 120, 99, -4, -16, -8, 2510, 50
1486723892.675864, -84, -194, -103, 132, 115, -6, -14, -4, 2510, 50
1486723892.676143, -95, -201, -87, 142, 46, -27, -12, -16, 2510, 50
1486723892.6825469, -1, -192, -69, 152, -30, -26, -10, -14, 2510, 50
1486723892.68309, 23, -193, -58, 155, 11, -11, -11, -6, 2510, 50
1486723892.6854157, -79, -203, -38, 141, 138, -1, -17, -8, 2510, 50
1486723892.6973524, -189, -208, -9, 156, 135, -5, -12, -10, 2510, 50
1486723892.6982546, -185, -211, 17, 176, 69, -22, -16, -20, 2510, 50
1486723892.699961, -138, -206, 61, 172, 16, -22, -5, -15, 2510, 50
1486723892.713297, -180, -206, 99, 145, 66, -14, -8, -11, 2510, 50
1486723892.714269, -306, -211, 124, 140, 149, 0, -22, -6, 2510, 50
1486723892.7143395, -392, -221, 134, 150, 181, -8, -14, -4, 2510, 50
1486723892.7201385, -395, -231, 161, 174, 102, -28, -11, -9, 2510, 50
1486723892.7274425, -336, -229, 190, 180, 48, -28, -9, -14, 2510, 50
1486723892.7293277, -347, -232, 213, 161, 101, -2, -8, -6, 2510, 50
1486723892.7354352, -448, -231, 215, 154, 169, 0, -14, 0, 2510, 50
1486723892.7355125, -486, -235, 197, 165, 176, -5, -17, -12, 2510, 50
1486723892.7379482, -433, -241, 190, 172, 73, -24, -16, -24, 2510, 50
1486723892.7508397, -347, -243, 190, 161, 21, -14, -10, -16, 2510, 50
1486723892.7512326, -344, -235, 175, 126, 87, -5, -24, -17, 2510, 50
1486723892.7512784, -417, -235, 159, 118, 159, 8, -16, -10, 2510, 50
1486723892.75731, -438, -239, 139, 133, 131, -8, -10, -16, 2510, 50
1486723892.7582192, -378, -245, 134, 139, 37, -23, -6, -13, 2510, 50
1486723892.761649, -299, -245, 130, 125, 11, -24, -12, -10, 2510, 50
1486723892.7723114, -295, -238, 123, 109, 79, -2, -10, -7, 2510, 50
1486723892.7732878, -406, -247, 110, 101, 149, 2, -12, -11, 2510, 50
1486723892.7741797, -408, -245, 98, 117, 115, -12, -16, -12, 2510, 50
1486723892.787332, -323, -246, 96, 124, 9, -30, -8, -12, 2510, 50
1486723892.788318, -260, -247, 97, 110, 5, -25, -10, -19, 2510, 50
1486723892.790868, -275, -243, 90, 90, 80, -2, -14, -8, 2510, 50
1486723892.7958133, -380, -245, 85, 94, 148, 2, -15, -11, 2510, 50
1486723892.7974722, -388, -251, 78, 112, 93, -11, -14, -21, 2510, 50
1486723892.7975435, -313, -248, 83, 116, -8, -23, -9, -20, 2510, 50
1486723892.8101525, -256, -244, 100, 100, -3, -20, -8, -7, 2510, 50
1486723892.8108704, -291, -238, 95, 88, 77, -4, -17, -1, 2510, 50
1486723892.8111792, -385, -238, 86, 83, 130, -3, -12, -7, 2510, 50
1486723892.81434, -393, -244, 98, 117, 115, -12, -16, -17, 2510, 50
1486723892.8250337, -299, -238, 89, 105, -10, -21, -4, -16, 2510, 50
1486723892.8265786, -220, -229, 95, 79, -10, -23, -15, -16, 2510, 50
1486723892.8323464, -311, -236, 91, 62, 89, 0, -18, -16, 2510, 50
1486723892.8328514, -365, -236, 72, 76, 126, 3, -14, -13, 2510, 50
1486723892.8331854, -370, -244, 69, 104, 66, -16, -12, -25, 2510, 50
1486723892.8349822, -292, -248, 83, 116, -8, -23, -9, -20, 2510, 50
1486723892.8474488, -257, -246, 102, 94, 4, -20, -11, -6, 2510, 50
1486723892.848196, -323, -236, 112, 77, 117, 0, -11, -12, 2510, 50
1486723892.8488595, -405, -240, 108, 94, 136, -3, -12, -7, 2510, 50
1486723892.8624008, -400, -246, 100, 100, 48, -16, -7, -19, 2510, 50
1486723892.8632553, -289, -245, 98, 95, -16, -30, -14, -16, 2510, 50
1486723892.866203, -267, -241, 102, 70, 15, -12, -15, -16, 2510, 50
1486723892.8698118, -337, -242, 96, 56, 110, 3, -12, -19, 2510, 50
1486723892.870796, -409, -238, 87, 69, 110, -3, -10, -14, 2510, 50
1486723892.8716314, -370, -245, 84, 93, 39, -21, -10, -25, 2510, 50
1486723892.885801, -268, -243, 90, 88, -24, -24, -5, -16, 2510, 50
1486723892.88661, -253, -236, 87, 64, 34, -7, -8, -9, 2510, 50
1486723892.8866801, -327, -233, 96, 71, 119, 4, -7, -12, 2510, 50
1486723892.8997881, -402, -237, 92, 89, 123, -10, -10, -13, 2510, 50
1486723892.9008234, -357, -243, 95, 107, 31, -23, -9, -12, 2510, 50
1486723892.9037526, -263, -235, 99, 91, -21, -30, -14, -16, 2510, 50
1486723892.9082847, -250, -232, 104, 64, 35, -6, -11, -9, 2510, 50
1486723892.908731, -341, -228, 96, 65, 109, -1, -12, -8, 2510, 50
1486723892.9087691, -409, -234, 94, 83, 120, -2, -10, -14, 2510, 50
1486723892.92231, -337, -233, 90, 101, 22, -24, -16, -20, 2510, 50
1486723892.923302, -264, -236, 97, 92, -15, -25, -11, -15, 2510, 50
1486723892.924458, -262, -228, 98, 60, 35, -14, -17, -9, 2510, 50
1486723892.9455879, -361, -224, 91, 50, 100, 6, -16, -10, 2510, 50
1486723892.9464347, -381, -225, 79, 74, 91, -5, -18, -15, 2510, 50
1486723892.9465635, -329, -233, 86, 89, -12, -29, -18, -28, 2510, 50
1486723892.948117, -252, -232, 94, 75, -22, -18, -23, -20, 2510, 50
1486723892.9524605, -266, -226, 90, 56, 51, -4, -19, -10, 2510, 50
1486723892.9567091, -363, -220, 90, 63, 121, 0, -16, -11, 2510, 50
1486723892.9598346, -388, -230, 80, 80, 81, -15, -9, -12, 2510, 50
1486723892.9608297, -308, -229, 82, 88, -13, -23, -15, -18, 2510, 50
1486723892.9619122, -232, -225, 93, 76, -8, -21, -11, -15, 2510, 50
1486723892.974856, -263, -218, 98, 55, 55, -12, -21, -7, 2510, 50
1486723892.975811, -373, -218, 96, 53, 120, 3, -24, -11, 2510, 50
1486723892.9774957, -382, -224, 89, 77, 67, -13, -10, -13, 2510, 50
1486723892.982301, -304, -223, 92, 86, -24, -17, -8, -19, 2510, 50
1486723892.9830053, -240, -220, 100, 74, -22, -19, -10, -16, 2510, 50
1486723892.9847724, -280, -215, 95, 56, 73, -4, -19, -10, 2510, 50
1486723892.9973712, -371, -216, 89, 59, 127, -1, -15, -14, 2510, 50
1486723892.9983087, -377, -220, 77, 74, 69, -11, -13, -15, 2510, 50
1486723892.9985704, -273, -216, 81, 79, -7, -17, -9, -18, 2510, 50
1486723893.013246, -224, -212, 87, 54, -6, -14, -13, -15, 2510, 50
1486723893.0149026, -290, -209, 86, 45, 91, 8, -15, -11, 2510, 50
1486723893.0149732, -357, -213, 81, 63, 126, 6, -14, -11, 2510, 50
1486723893.0199327, -354, -216, 84, 87, 63, -16, -15, -17, 2510, 50
1486723893.020806, -243, -207, 85, 86, -13, -32, -13, -19, 2510, 50
1486723893.0213327, -233, -204, 88, 64, -10, -17, -25, -9, 2510, 50
1486723893.0348244, -295, -206, 86, 47, 112, 9, -12, -17, 2510, 50
1486723893.0356905, -370, -205, 80, 57, 120, -6, -24, -13, 2510, 50
1486723893.036275, -342, -212, 82, 82, 47, -23, -12, -11, 2510, 50
1486723893.0400925, -273, -216, 81, 79, -7, -17, -9, -18, 2510, 50
1486723893.0498476, -238, -200, 93, 57, 7, -17, -17, -15, 2510, 50
1486723893.0501466, -301, -199, 86, 36, 101, -7, -18, -10, 2510, 50
1486723893.0521247, -376, -213, 81, 63, 126, 6, -14, -16, 2510, 50
1486723893.0576932, -329, -207, 79, 77, 36, -17, -12, -14, 2510, 50
1486723893.0580437, -231, -196, 88, 78, -30, -27, -14, -12, 2510, 50
1486723893.061418, -223, -195, 88, 64, -10, -17, -25, -9, 2510, 50
1486723893.0733056, -314, -196, 89, 47, 111, 5, -21, 2, 2510, 50
1486723893.0742462, -373, -205, 79, 66, 122, -7, -11, -10, 2510, 50
1486723893.0743158, -324, -206, 72, 82, 47, -23, -12, -11, 2510, 50
1486723893.087364, -239, -207, 77, 74, -32, -23, -9, -21, 2510, 50
1486723893.0880053, -234, -194, 88, 48, 23, -14, -16, -10, 2510, 50
1486723893.093475, -322, -198, 79, 43, 101, -3, -19, -10, 2510, 50
1486723893.0957525, -358, -200, 76, 61, 95, -7, -17, -10, 2510, 50
1486723893.0973797, -299, -206, 74, 75, -6, -27, -11, -12, 2510, 50
1486723893.0974507, -229, -203, 83, 61, -30, -27, -14, -12, 2510, 50
1486723893.1098316, -237, -189, 86, 40, 36, -4, -12, -2, 2510, 50
1486723893.1108224, -325, -197, 78, 46, 123, 9, -16, -3, 2510, 50
1486723893.1151035, -357, -204, 70, 60, 90, -8, -11, -10, 2510, 50
1486723893.1253402, -281, -200, 75, 76, -14, -23, -11, -17, 2510, 50
1486723893.1256955, -214, -196, 79, 60, -42, -28, -13, -7, 2510, 50
1486723893.131164, -229, -194, 76, 41, 50, -6, -15, -10, 2510, 50
1486723893.133791, -339, -200, 68, 39, 122, -1, -18, -8, 2510, 50
1486723893.134107, -340, -198, 63, 52, 67, -8, -9, -16, 2510, 50
1486723893.134148, -262, -194, 70, 64, -29, -23, -14, -20, 2510, 50
1486723893.147402, -202, -184, 78, 51, -23, -24, -14, -17, 2510, 50
1486723893.1483097, -233, -181, 79, 42, 49, -11, -14, -8, 2510, 50
1486723893.150353, -338, -183, 81, 47, 122, 9, -16, -3, 2510, 50
1486723893.1623216, -349, -190, 72, 73, 69, -13, -11, -19, 2510, 50
1486723893.1633005, -258, -191, 68, 68, -29, -31, -10, -5, 2510, 50
1486723893.1673098, -199, -191, 77, 57, -26, -24, -10, -15, 2510, 50
1486723893.170847, -242, -181, 74, 37, 72, -9, -15, -14, 2510, 50
1486723893.174061, -317, -181, 63, 42, 117, 1, -18, -14, 2510, 50
1486723893.1741316, -331, -183, 65, 65, 40, -11, -11, -13, 2510, 50
1486723893.1848412, -233, -186, 75, 70, -26, -31, -8, -22, 2510, 50
1486723893.1858273, -193, -190, 85, 58, -1, -19, -12, -7, 2510, 50
1486723893.187822, -267, -182, 80, 40, 85, 1, -16, -7, 2510, 50
1486723893.2007842, -326, -188, 70, 51, 98, -4, -18, -17, 2510, 50
1486723893.201091, -325, -192, 67, 72, 45, -22, -18, -16, 2510, 50
1486723893.2011285, -226, -188, 74, 71, -33, -31, -10, -5, 2510, 50
1486723893.2073584, -195, -181, 76, 45, -13, -25, -17, -14, 2510, 50
1486723893.208374, -269, -176, 78, 38, 98, -2, -24, -15, 2510, 50
1486723893.208676, -349, -188, 73, 55, 101, 1, -18, -14, 2510, 50
1486723893.2224212, -315, -183, 72, 77, 29, -16, -15, -19, 2510, 50
1486723893.2233467, -208, -182, 75, 76, -50, -33, -12, -13, 2510, 50
1486723893.2278385, -192, -180, 78, 55, 9, -19, -18, -7, 2510, 50
1486723893.2373526, -264, -183, 73, 49, 100, -1, -19, -5, 2510, 50
1486723893.2381678, -339, -186, 61, 62, 108, -6, -18, -6, 2510, 50
1486723893.2421713, -284, -192, 57, 75, 26, -23, -10, -9, 2510, 50
1486723893.2448368, -212, -186, 68, 68, -38, -27, -13, -21, 2510, 50
1486723893.2458067, -193, -181, 73, 52, 28, -11, -18, -12, 2510, 50
1486723893.2487524, -274, -180, 65, 45, 90, -1, -19, 0, 2510, 50
1486723893.2598772, -333, -188, 62, 62, 101, -9, -19, -15, 2510, 50
1486723893.2606783, -285, -184, 64, 69, 2, -23, -12, -17, 2510, 50
1486723893.2613468, -198, -185, 72, 67, -38, -31, -14, -20, 2510, 50
1486723893.264439, -192, -180, 78, 55, 9, -19, -18, -9, 2510, 50
1486723893.2758486, -299, -176, 73, 38, 107, 3, -20, -4, 2510, 50
1486723893.2759218, -333, -179, 64, 57, 100, -8, -15, -6, 2510, 50
1486723893.2781053, -276, -188, 57, 75, 26, -23, -10, -9, 2510, 50
1486723893.28246, -204, -184, 69, 59, -29, -26, -17, -15, 2510, 50
1486723893.2833164, -199, -170, 72, 37, 35, -3, -14, -4, 2510, 50
1486723893.2983596, -301, -171, 59, 34, 111, 10, -15, -6, 2510, 50
1486723893.2987604, -325, -179, 56, 53, 70, -14, -20, -13, 2510, 50
1486723893.2987983, -256, -178, 55, 64, -27, -28, -23, -28, 2510, 50
1486723893.2996075, -198, -185, 72, 67, -38, -31, -14, -20, 2510, 50
1486723893.3123245, -219, -170, 64, 24, 46, -4, -20, -17, 2510, 50
1486723893.313401, -318, -171, 66, 28, 119, 2, -17, -4, 2510, 50
1486723893.3148544, -330, -174, 55, 57, 100, -8, -15, -6, 2510, 50
1486723893.3199465, -248, -174, 57, 57, -29, -37, -17, -21, 2510, 50
1486723893.3208792, -176, -167, 72, 46, -29, -20, -9, -20, 2510, 50
1486723893.3220284, -218, -169, 67, 26, 35, -3, -14, -4, 2510, 50
1486723893.3380256, -316, -171, 63, 28, 101, -8, -22, -11, 83, 644
1486723893.3383703, -319, -170, 56, 42, 56, -17, -14, -16, 83, 644
1486723893.3384097, -235, -172, 68, 56, -22, -28, -23, -28, 83, 644
1486723893.3498006, -168, -167, 60, 35, -34, -21, -12, -14, 83, 644
1486723893.350567, -222, -160, 57, 12, 67, -1, -19, -6, 83, 644
1486723893.351263, -310, -164, 50, 26, 122, -1, -26, -4, 83, 644
1486723893.3574913, -300, -177, 44, 57, 50, -16, -14, -13, 83, 644
1486723893.3582392, -210, -174, 52, 66, -13, -29, -15, -26, 83, 644
1486723893.3585947, -166, -164, 68, 41, -13, -25, -20, -13, 83, 644
1486723893.372355, -230, -158, 64, 27, 76, 1, -18, -10, 83, 644
1486723893.373321, -296, -165, 49, 34, 102, -5, -19, -10, 83, 644
1486723893.3738818, -290, -164, 43, 45, 33, -27, -15, -25, 83, 644
1486723893.3873534, -187, -160, 47, 43, -40, -27, -16, -19, 83, 644
1486723893.3878162, -157, -159, 44, 20, -18, -8, -8, -4, 83, 644
1486723893.3900874, -235, -157, 51, 16, 92, 7, -13, -3, 83, 644
1486723893.3952427, -303, -154, 42, 24, 102, 0, -13, -9, 83, 644
1486723893.3956137, -266, -158, 37, 43, 24, -18, -14, -17, 83, 644
1486723893.3968534, -177, -157, 57, 46, -38, -30, -15, -26, 83, 644
1486723893.4098501, -170, -149, 58, 17, -5, -19, -19, -12, 83, 644
1486723893.4106553, -242, -151, 53, 12, 97, 0, -17, -11, 83, 644
1486723893.4131637, -298, -150, 40, 30, 102, -9, -21, -10, 83, 644
1486723893.4257994, -253, -155, 43, 43, 14, -35, -23, -15, 83, 644
1486723893.426477, -163, -148, 48, 36, -59, -32, -17, -13, 83, 644
1486723893.4265482, -153, -144, 56, 22, 3, -12, -17, -14, 83, 644
1486723893.4324174, -250, -150, 49, 21, 83, -9, -20, -13, 83, 644
1486723893.4327393, -304, -159, 40, 39, 88, -8, -16, -17, 83, 644
1486723893.4371297, -241, -155, 47, 57, -13, -18, -14, -17, 83, 644
1486723893.447443, -159, -154, 54, 45, -54, -21, -4, -14, 83, 644
1486723893.4482083, -163, -150, 60, 18, 5, -18, -10, -6, 83, 644
1486723893.4494026, -247, -149, 49, 14, 76, -2, -18, -11, 83, 644
1486723893.463128, -284, -147, 39, 27, 75, -11, -16, -17, 83, 644
1486723893.4706578, -224, -152, 44, 51, -35, -26, -13, -17, 83, 644
1486723893.4719613, -153, -149, 54, 40, -41, -22, -9, -13, 83, 644
1486723893.4720113, -166, -143, 58, 20, 14, -2, -19, -13, 83, 644
1486723893.4737954, -272, -148, 50, 17, 97, 2, -17, -15, 83, 644
1486723893.4780915, -285, -153, 40, 44, 73, -14, -17, -15, 83, 644
1486723893.4848416, -218, -158, 42, 55, -34, -36, -9, -15, 83, 644
1486723893.4858365, -156, -147, 54, 31, -44, -29, -15, -13, 83, 644
1486723893.4881618, -178, -139, 55, 3, 37, -18, -10, -6, 83, 644
1486723893.5004294, -269, -137, 42, 1, 95, -4, -22, -16, 83, 644
1486723893.5009193, -272, -148, 34, 28, 39, -10, -13, -22, 83, 644
1486723893.5011864, -201, -143, 46, 44, -38, -28, -15, -21, 83, 644
1486723893.5083323, -152, -140, 53, 20, -56, -22, -6, -21, 83, 644
1486723893.5104623, -184, -131, 54, 1, 41, -2, -14, -6, 83, 644
1486723893.5105405, -276, -130, 41, 5, 89, 5, -8, -13, 83, 644
1486723893.5223436, -280, -140, 31, 25, 42, -11, -12, -12, 83, 644
1486723893.5228868, -192, -145, 35, 42, -34, -25, -9, -14, 83, 644
1486723893.52403, -131, -140, 47, 25, -22, -26, -12, -14, 83, 644
1486723893.5267658, -187, -132, 55, 3, 37, -10, -25, -16, 83, 644
1486723893.5382562, -255, -131, 31, 17, 92, -1, -11, -14, 83, 644
1486723893.5385516, -253, -139, 28, 30, 30, -17, -11, -15, 83, 644
1486723893.5385888, -165, -139, 46, 44, -38, -28, -15, -21, 83, 644
1486723893.5448794, -136, -125, 42, 11, -32, -23, -14, -15, 83, 644
1486723893.545787, -198, -131, 41, 9, 79, -2, -17, -11, 83, 644
1486723893.5460706, -276, -137, 35, 5, 89, 5, -8, -13, 83, 644
1486723893.559886, -263, -137, 41, 50, 10, -20, -10, -16, 83, 644
1486723893.5608232, -141, -110, 51, 11, -64, -30, -15, -15, 83, 644
1486723893.5626955, -114, -78, 59, -21, -21, -26, -12, -14, 83, 644
1486723893.5748417, -178, -61, 53, -42, 74, 1, -17, -5, 83, 644
1486723893.57579, -247, -42, 50, -48, 73, 4, -17, -12, 83, 644
1486723893.5787137, -205, -19, 50, -54, -8, -24, -17, -15, 83, 644
1486723893.5833266, -98, 12, 70, -75, -76, -27, -21, -23, 83, 644
1486723893.5840352, -86, 45, 81, -119, -20, -8, -20, -20, 83, 644
1486723893.5841036, -153, 80, 85, -146, 45, 0, -17, -11, 83, 644
1486723893.597447, -209, 109, 84, -148, 53, -9, -13, -7, 83, 644
1486723893.5982175, -140, 138, 90, -148, -32, -24, -9, -15, 83, 644
1486723893.5985851, -42, 165, 100, -163, -109, -28, -17, -15, 83, 644
1486723893.6123612, -20, 196, 110, -203, -52, -10, -11, -8, 83, 644
1486723893.6133137, -99, 230, 107, -228, 10, -3, -13, 0, 83, 644
1486723893.6149607, -143, 252, 105, -226, 4, 4, -17, -12, 83, 644
1486723893.6198928, -72, 271, 104, -227, -103, -30, -9, -22, 83, 644
1486723893.6207683, 22, 301, 128, -246, -131, -25, -17, -18, 83, 644
1486723893.6211865, 35, 330, 137, -280, -74, -2, -20, -20, 83, 644
1486723893.6356058, -54, 342, 120, -293, -23, -1, -15, -9, 83, 644
1486723893.6356823, -65, 357, 113, -283, -27, -9, -12, -10, 83, 644
1486723893.63605, 5, 370, 121, -282, -143, -28, -10, -15, 83, 644
1486723893.6499727, 100, 389, 128, -308, -167, -23, -14, -11, 83, 644
1486723893.6507432, 84, 401, 130, -334, -102, 0, -17, -8, 83, 644
1486723893.6516688, -16, 405, 126, -333, 233, -3, -13, 0, 83, 644
1486723893.6573915, -22, 412, 121, -314, -72, -17, -22, -16, 83, 644
1486723893.658353, 68, 409, 117, -307, -180, -26, -12, -20, 83, 644
1486723893.6601582, 134, 416, 125, -321, -169, -26, -17, -18, 83, 644
1486723893.6730754, 98, 421, 128, -336, -107, -6, -16, -11, 83, 644
1486723893.67315, 1, 419, 126, -334, -41, -1, -14, -13, 83, 644
1486723893.6776514, -10, 408, 119, -309, -99, -16, -18, -19, 83, 644
1486723893.6874015, 84, 409, 120, -301, -168, -25, -10, -15, 83, 644
1486723893.6880956, 149, 414, 124, -313, -178, -19, -15, -10, 83, 644
1486723893.690109, 92, 412, 125, -329, -86, 0, -17, -8, 83, 644
1486723893.7023757, 7, 405, 116, -321, -34, 1, -14, -1, 83, 644
1486723893.7032363, 12, 402, 114, -297, -97, -15, -16, -10, 83, 644
1486723893.7049458, 104, 402, 118, -294, -167, -25, -12, -20, 83, 644
1486723893.7102313, 156, 409, 129, -49, -10, 21399, -4038, 89, 83, 644
1486723893.7111967, 10, 397, 115, -314, -47, -6, -16, -11, 83, 644
1486723893.7248788, 19, 387, 111, -286, -96, -20, -21, -9, 83, 644
1486723893.7258244, 131, 397, 122, -280, -168, -28, -10, -16, 83, 644
1486723893.7266514, 150, 395, 117, -298, -156, -17, -10, -15, 83, 644
1486723893.7325425, 80, 389, 114, -308, -52, -6, -18, -14, 83, 644
1486723893.7333374, 3, 385, 109, -297, -33, 2, -13, -10, 83, 644
1486723893.7349494, 25, 385, 108, -276, -107, -21, -15, -14, 83, 644
1486723893.7473853, 132, 387, 114, -275, -183, -32, -9, -19, 83, 644
1486723893.7481372, 151, 394, 118, -309, -156, -12, -18, -7, 83, 644
1486723893.748684, 63, 399, 119, -326, -64, -8, -19, -7, 83, 644
1486723893.7495365, 16, 397, 115, -314, -47, -1, -17, -6, 83, 644
1486723893.7625222, 55, 381, 84, -289, -117, -26, -14, -19, 83, 644
1486723893.7646232, 144, 384, 112, -280, -200, -36, -14, -13, 83, 644
1486723893.7699084, 165, 400, 117, -305, -143, -15, -17, -17, 83, 644
1486723893.7706432, 77, 408, 105, -318, -65, -3, -20, -9, 83, 644
1486723893.7714434, 39, 409, 89, -308, -50, -7, -20, -8, 83, 644
1486723893.7771585, 25, 385, 108, -276, -107, -21, -15, -14, 83, 644
1486723893.7852514, 187, 410, 89, -321, -141, -13, -21, -12, 83, 644
1486723893.786279, 104, 417, 81, -325, -156, -12, -18, -7, 83, 644
1486723893.799868, 54, 402, 63, -309, -75, -5, -19, -13, 83, 644
1486723893.8009424, 125, 404, 68, -293, -167, -24, -9, -13, 83, 644
1486723893.8019829, 189, 399, 88, -291, -188, -26, -14, -19, 83, 644
1486723893.8074474, 184, 413, 93, -316, -135, -9, -15, -5, 83, 644
1486723893.8084233, 81, 409, 87, -319, -57, 0, -21, -11, 83, 644
1486723893.810828, 70, 404, 75, -293, -69, -3, -20, -9, 83, 644
1486723893.822446, 133, 397, 74, -278, -184, -29, -9, -6, 83, 644
1486723893.8233573, 208, 404, 87, -294, -196, -26, -9, -14, 83, 644
1486723893.8236187, 180, 402, 89, -312, -123, -8, -21, -12, 83, 644
1486723893.837478, 74, 398, 78, -308, -48, 3, -10, -9, 83, 644
1486723893.837763, 62, 392, 72, -280, -84, -11, -18, -5, 83, 644
1486723893.8386307, 144, 384, 67, -269, -184, -32, -15, -6, 83, 644
1486723893.8448887, 203, 387, 85, -289, -186, -27, -14, -9, 83, 644
1486723893.8459191, 156, 394, 87, -307, -112, -10, -22, -2, 83, 644
1486723893.8495846, 78, 392, 72, -304, -42, 0, -21, -11, 83, 644
1486723893.8599052, 73, 388, 68, -287, -101, -18, -21, -6, 83, 644
1486723893.860973, 157, 388, 70, -275, -180, -32, -14, -3, 83, 644
1486723893.8612425, 204, 396, 83, -297, -192, -17, -9, -14, 83, 644
1486723893.8750844, 154, 391, 75, -310, -94, 7, -15, -4, 83, 644
1486723893.8751512, 80, 387, 68, -300, -42, 7, -17, -3, 83, 644
1486723893.8760421, 83, 380, 62, -279, -117, -8, -11, -13, 83, 644
1486723893.8899677, 169, 381, 71, -272, -180, -24, -4, -16, 83, 644
1486723893.890219, 206, 387, 77, -293, -173, -16, -14, -16, 83, 644
1486723893.8911095, 156, 388, 73, -311, -91, 0, -19, -7, 83, 644
1486723893.8976905, 80, 387, 61, -302, -51, -2, -14, 1, 83, 644
1486723893.8981497, 89, 380, 59, -280, -114, -19, -13, -12, 83, 644
1486723893.8998444, 178, 382, 65, -281, -190, -32, -14, -3, 83, 644
1486723893.912436, 204, 384, 67, -303, -176, -16, -14, -9, 83, 644
1486723893.9134045, 144, 381, 66, -310, -74, -3, -19, -6, 83, 644
1486723893.9159987, 75, 380, 52, -304, -64, 0, -17, -3, 83, 644
1486723893.920951, 87, 376, 57, -276, -136, -18, -8, -13, 83, 644
1486723893.921296, 189, 373, 62, -271, -188, -29, -9, -17, 83, 644
1486723893.921333, 193, 376, 70, -291, -147, -15, -14, -16, 83, 644
1486723893.935906, 121, 373, 61, -304, -52, 0, -15, -12, 83, 644
1486723893.935974, 60, 372, 51, -287, -57, 0, -15, -11, 83, 644
1486723893.937395, 96, 368, 58, -266, -134, -20, -4, -19, 83, 644
1486723893.9499092, 190, 369, 65, -272, -197, -23, -8, -17, 83, 644
1486723893.9508264, 202, 368, 65, -289, -147, -18, -18, -8, 83, 644
1486723893.9524295, 136, 371, 56, -304, -59, -3, -19, -6, 83, 644
1486723893.9573884, 54, 362, 54, -282, -49, -4, -14, -13, 83, 644
1486723893.9576495, 109, 357, 57, -260, -149, -27, -13, -15, 83, 644
1486723893.9603918, 186, 354, 61, -266, -203, -20, -12, -17, 83, 644
1486723893.9725285, 199, 356, 57, -285, -119, -12, -13, -9, 83, 644
1486723893.9731035, 103, 351, 44, -289, -56, 4, -18, -9, 83, 644
1486723893.9740672, 63, 352, 43, -275, -70, -13, -19, -13, 83, 644
1486723893.9761498, 96, 368, 58, -266, -134, -20, -4, -19, 83, 644
1486723893.9884467, 193, 353, 59, -274, -187, -27, -14, -20, 83, 644
1486723893.9892542, 199, 355, 51, -293, -119, -6, -14, -7, 83, 644
1486723893.9893234, 91, 351, 46, -304, -59, 7, -9, -2, 83, 644
1486723893.9950888, 62, 349, 42, -271, -70, -8, -20, -14, 83, 644
1486723893.9981217, 135, 353, 46, -259, -177, -33, -25, -18, 83, 644
1486723894.0099335, 221, 353, 55, -279, -179, -22, -14, -11, 83, 644
1486723894.0105636, 183, 358, 55, -295, -114, -5, -18, -1, 83, 644
1486723894.0113578, 84, 346, 45, -288, -38, 6, -19, -7, 83, 644
1486723894.011655, 70, 352, 43, -275, -70, -13, -19, -13, 83, 644
1486723894.0259387, 148, 344, 40, -263, -179, -23, -20, -19, 83, 644
1486723894.0260077, 214, 351, 51, -276, -186, -21, -15, -5, 83, 644
1486723894.027058, 173, 351, 50, -288, -119, -6, -14, -7, 83, 644
1486723894.0324252, 75, 347, 41, -282, -46, -2, -11, -3, 83, 644
1486723894.0334396, 72, 341, 36, -256, -102, -22, -14, -10, 83, 644
1486723894.033722, 162, 335, 37, -252, -177, -33, -25, -18, 83, 644
1486723894.047454, 211, 341, 43, -276, -182, -12, -9, -12, 83, 644
1486723894.0483878, 166, 358, 39, -295, -83, 5, -19, -8, 83, 644
1486723894.0500567, 77, 346, 35, -289, -30, 6, -19, -7, 83, 644
1486723894.0624416, 87, 337, 33, -255, -106, -11, -7, -10, 83, 644
1486723894.0626926, 171, 341, 43, -257, -167, -21, -3, -4, 83, 644
1486723894.066784, 215, 341, 46, -278, -163, -21, -15, -5, 83, 644
1486723894.070049, 149, 349, 50, -286, -72, -3, -19, -16, 83, 644
1486723894.070118, 64, 334, 38, -275, -49, -5, -16, -6, 83, 644
1486723894.0709553, 85, 331, 35, -246, -98, -18, -7, -10, 83, 644
1486723894.0849483, 182, 328, 42, -245, -182, -30, -8, -14, 83, 644
1486723894.0859025, 213, 336, 47, -269, -156, -18, -9, -8, 83, 644
1486723894.0865164, 132, 334, 43, -285, -51, 5, -17, -13, 83, 644
1486723894.1009321, 66, 328, 31, -268, -52, -12, -16, -19, 83, 644
1486723894.101683, 102, 322, 30, -244, -132, -25, -13, -16, 83, 644
1486723894.1017525, 214, 326, 36, -254, -199, -25, -11, -18, 83, 644
1486723894.1074357, 212, 330, 41, -270, -149, -16, -18, -16, 83, 644
1486723894.1087167, 120, 324, 38, -271, -58, -3, -18, -8, 83, 644
1486723894.1095192, 65, 320, 25, -261, -35, -1, -10, -14, 83, 644
1486723894.1224205, 114, 317, 27, -241, -119, -17, -8, -12, 83, 644
1486723894.1228583, 194, 317, 35, -238, -180, -24, -8, -10, 83, 644
1486723894.124957, 203, 323, 34, -272, -134, -18, -9, -8, 83, 644
1486723894.1381729, 109, 323, 33, -277, -54, -3, -19, -17, 83, 644
1486723894.1382434, 55, 318, 26, -261, -59, -6, -19, -16, 83, 644
1486723894.1396568, 103, 312, 30, -248, -150, -25, -13, -16, 83, 644
1486723894.144952, 195, 313, 38, -243, -192, -20, -6, -15, 83, 644
1486723894.145727, 184, 319, 42, -264, -126, -12, -12, -9, 83, 644
1486723894.1462646, 91, 311, 33, -258, -49, 6, -17, -14, 83, 644
1486723894.1601734, 64, 308, 26, -242, -54, -5, -13, -21, 83, 644
1486723894.1606934, 128, 308, 32, -228, -161, -24, -10, -17, 83, 644
1486723894.160894, 188, 307, 47, -243, -173, -17, -11, -22, 83, 644
1486723894.1749144, 178, 314, 45, -266, -107, -2, -10, -10, 83, 644
1486723894.1759145, 76, 313, 38, -267, -37, 11, -9, -8, 83, 644
1486723894.176773, 62, 305, 31, -242, -63, -6, -19, -16, 83, 644
1486723894.1825733, 132, 299, 33, -236, -178, -24, -11, -23, 83, 644
1486723894.1834133, 198, 305, 50, -242, -174, -31, -17, -14, 83, 644
1486723894.1851485, 156, 305, 50, -255, -84, -2, -12, -9, 83, 644
1486723894.197465, 65, 305, 40, -256, -29, 3, -9, -6, 83, 644
1486723894.1984382, 59, 299, 38, -235, -76, -7, -11, -17, 83, 644
1486723894.1988804, 126, 298, 45, -226, -163, -29, -15, -19, 83, 644
1486723894.2124243, 178, 298, 56, -232, -166, -18, -10, -15, 83, 644
1486723894.2134275, 135, 304, 56, -247, -83, -2, -10, -3, 83, 644
1486723894.214115, 58, 301, 47, -240, -14, 13, -9, -9, 83, 644
1486723894.2199242, 48, 289, 42, -225, -81, -11, -8, -15, 83, 644
1486723894.2208016, 141, 289, 44, -213, -157, -31, -4, -4, 83, 644
1486723894.2212882, 190, 294, 54, -227, -160, -17, -11, -11, 83, 644
1486723894.2218366, 156, 305, 50, -255, -84, -2, -17, -8, 83, 644
1486723894.2349522, 51, 292, 47, -236, -13, -4, -19, -1, 83, 644
1486723894.235937, 60, 292, 45, -210, -76, -11, -8, -13, 83, 644
1486723894.2377167, 151, 286, 45, -226, -163, -29, -15, -19, 83, 644
1486723894.2510176, 172, 289, 51, -223, -142, -20, -11, -10, 83, 644
1486723894.2562702, 127, 288, 53, -231, -30, 10, -11, -6, 1936, 139
1486723894.256388, 48, 280, 41, -215, -14, 13, -9, -9, 1936, 139
1486723894.2572043, 49, 277, 38, -196, -83, -14, -12, -13, 1936, 139
1486723894.2576213, 159, 282, 45, -202, -168, -31, -17, -14, 1936, 139
1486723894.2584205, 190, 288, 53, -227, -160, -17, -11, -11, 1936, 139
1486723894.2725322, 116, 293, 46, -242, -38, 2, -14, 1, 1936, 139
1486723894.2730105, 48, 281, 31, -226, -27, -2, -11, -8, 1936, 139
1486723894.2735944, 81, 279, 34, -203, -76, -11, -8, -13, 1936, 139
1486723894.287297, 168, 272, 43, -203, -163, -25, -4, -20, 1936, 139
1486723894.2876613, 186, 279, 50, -219, -110, -12, -13, -9, 1936, 139
1486723894.2884772, 103, 275, 46, -234, -26, 10, -11, -6, 1936, 139
1486723894.2949967, 49, 273, 37, -212, -23, -3, -10, -9, 1936, 139
1486723894.2953532, 86, 270, 36, -191, -111, -25, -6, -18, 1936, 139
1486723894.2959056, 173, 268, 46, -199, -167, -29, -10, -14, 1936, 139
1486723894.3099012, 188, 275, 47, -226, -113, -13, -19, -17, 1936, 139
1486723894.3102899, 95, 275, 42, -230, -42, 5, -16, -10, 1936, 139
1486723894.3109322, 27, 277, 41, -211, -52, -6, -14, -7, 1936, 139
1486723894.324928, 91, 271, 40, -188, -130, -28, -12, -18, 1936, 139
1486723894.3253176, 173, 268, 48, -195, -168, -20, -15, -19, 1936, 139
1486723894.3260365, 167, 273, 55, -216, -100, -1, -13, -9, 1936, 139
1486723894.3326037, 65, 270, 45, -215, -35, 5, -19, -7, 1936, 139
1486723894.333029, 24, 260, 36, -195, -42, -5, -15, -16, 1936, 139
1486723894.3332708, 102, 256, 32, -187, -139, -20, -6, -18, 1936, 139
1486723894.3472686, 175, 257, 40, -192, -157, -15, -7, -15, 1936, 139
1486723894.3477356, 171, 266, 41, -206, -76, 2, -6, -8, 1936, 139
1486723894.3485878, 50, 262, 38, -210, -7, 7, -18, -10, 1936, 139
1486723894.3623915, 28, 258, 35, -192, -40, -12, -8, -8, 1936, 139
1486723894.3627813, 107, 262, 41, -186, -152, -30, -13, -10, 1936, 139
1486723894.3634624, 178, 261, 49, -201, -148, -24, -17, -10, 1936, 139
1486723894.3699164, 139, 267, 49, -218, -75, -3, -18, -5, 1936, 139
1486723894.3703117, 31, 259, 38, -211, -1, 9, -16, -15, 1936, 139
1486723894.3710504, 32, 261, 33, -194, -63, -11, -14, -16, 1936, 139
1486723894.3848825, 109, 259, 37, -183, -135, -24, -12, -16, 1936, 139
1486723894.3853097, 180, 260, 46, -197, -142, -17, -8, -6, 1936, 139
1486723894.386068, 115, 264, 48, -213, -51, 2, -6, -8, 1936, 139
1486723894.3998485, 30, 253, 37, -198, 7, 4, -12, -13, 1936, 139
1486723894.4002335, 19, 252, 36, -173, -55, -10, -10, -18, 1936, 139
1486723894.4011009, 128, 244, 38, -170, -128, -24, -13, -10, 1936, 139
1486723894.4073205, 173, 249, 46, -191, -132, -19, -10, -14, 1936, 139
1486723894.4077237, 109, 257, 46, -207, -34, 6, -12, -2, 1936, 139
1486723894.408602, 38, 254, 29, -202, -5, 7, -9, -15, 1936, 139
1486723894.4221838, 42, 248, 29, -178, -61, -15, -15, -19, 1936, 139
1486723894.4226797, 135, 245, 33, -173, -118, -28, -16, -12, 1936, 139
1486723894.4235754, 169, 251, 45, -187, -115, -10, -12, -15, 1936, 139
1486723894.437214, 105, 252, 42, -203, -10, 2, -9, -4, 1936, 139
1486723894.4376473, 35, 251, 25, -193, 6, 0, -16, -13, 1936, 139
1486723894.438722, 47, 239, 30, -166, -68, -15, -15, -14, 1936, 139
1486723894.4448133, 146, 239, 47, -163, -144, -22, -8, -15, 1936, 139
1486723894.445423, 164, 242, 46, -190, -120, -10, -7, -18, 1936, 139
1486723894.4459438, 90, 252, 40, -196, -13, 7, -17, -9, 1936, 139
1486723894.44658, 38, 254, 29, -202, -5, 7, -9, -2, 1936, 139
1486723894.4598517, 63, 230, 32, -161, -76, -29, -14, -13, 1936, 139
1486723894.4602754, 158, 234, 44, -164, -140, -23, -3, -10, 1936, 139
1486723894.461126, 164, 251, 45, -187, -115, -10, -12, -15, 1936, 139
1486723894.4748232, 65, 248, 45, -208, -8, 7, -16, -17, 1936, 139
1486723894.4752085, 1, 236, 45, -189, -1, -5, -19, -12, 1936, 139
1486723894.476183, 44, 208, 44, -141, -68, -15, -15, -14, 1936, 139
1486723894.4824393, 117, 190, 38, -137, -125, -32, -13, -16, 1936, 139
1486723894.4827466, 102, 172, 50, -149, -55, -16, -15, -14, 1936, 139
1486723894.4834151, 90, 252, 40, -196, -13, 7, -17, -9, 1936, 139
1486723894.4974723, -49, 96, 48, -73, -40, -20, -6, -16, 1936, 139
1486723894.4978333, -15, 75, 74, -64, -76, -29, -14, -13, 1936, 139
1486723894.512439, -62, 56, 95, -68, 14, -8, -14, -14, 1936, 139
1486723894.512767, -184, 24, 82, -53, 96, 11, -20, -15, 1936, 139
1486723894.513599, -217, 2, 80, -21, -8, 7, -16, -17, 1936, 139
1486723894.5273745, -172, -13, 95, 15, -9, -28, -11, -8, 1936, 139
1486723894.5278003, -114, -41, 98, 25, -8, -25, -9, -7, 1936, 139
1486723894.5284429, -148, -66, 100, 21, -175, -32, -13, -16, 1936, 139
1486723894.534891, -274, -88, 92, 44, 170, 7, -14, -13, 1936, 139
1486723894.535281, -299, -126, 86, 88, 139, -5, -6, -17, 1936, 139
1486723894.5359664, -227, -146, 83, 101, 27, -20, -6, -16, 1936, 139
1486723894.5498788, -169, -153, 88, 101, 33, -22, -6, -8, 1936, 139
1486723894.550293, -203, -154, 74, 82, 98, -2, -13, 1, 1936, 139
1486723894.5508456, -296, -173, 58, 90, 174, 9, -20, -15, 1936, 139
1486723894.5648925, -307, -180, 50, 111, 114, -9, -11, -11, 1936, 139
1486723894.5652785, -225, -203, 37, 125, 42, -21, -16, -17, 1936, 139
1486723894.5660267, -159, -193, 44, 108, 29, -22, -22, -16, 1936, 139
1486723894.5724134, -203, -189, 37, 88, 118, 0, -24, -8, 1936, 139
1486723894.5727737, -278, -197, 19, 93, 175, 2, -21, -11, 1936, 139
1486723894.5736203, -274, -203, 14, 115, 100, -11, -13, -12, 1936, 139
1486723894.5883303, -167, -198, 8, 113, 26, -25, -11, -13, 1936, 139
1486723894.5887523, -124, -197, 14, 94, 28, -18, -22, -8, 1936, 139
1486723894.588789, -181, -192, 16, 83, 124, 3, -17, -10, 1936, 139
1486723894.5948973, -241, -194, 8, 94, 151, -2, -16, -8, 1936, 139
1486723894.5952842, -243, -196, 8, 116, 94, -18, -15, -21, 1936, 139
1486723894.5961387, -157, -199, 9, 116, 15, -24, -12, -20, 1936, 139
1486723894.6099038, -117, -196, 12, 97, 27, -12, -13, -11, 1936, 139
1486723894.6102703, -173, -193, 7, 74, 142, 1, -19, -13, 1936, 139
1486723894.611133, -254, -200, -8, 82, 144, 2, -21, -11, 1936, 139
1486723894.6248279, -229, -196, -12, 99, 55, -19, -12, -20, 1936, 139
1486723894.6252575, -123, -192, 3, 103, -13, -28, -12, -20, 1936, 139
1486723894.626116, -100, -189, 1, 80, 47, -9, -22, -8, 1936, 139
1486723894.6323712, -188, -184, 0, 73, 135, 8, -11, -8, 1936, 139
1486723894.6327274, -250, -193, -11, 84, 138, 1, -10, -7, 1936, 139
1486723894.6335707, -201, -192, -11, 98, 50, -20, -15, -21, 1936, 139
1486723894.6474125, -115, -195, -7, 92, -7, -24, -12, -17, 1936, 139
1486723894.6476378, -86, -176, -5, 70, 49, -11, -9, -17, 1936, 139
1486723894.6488287, -183, -187, -5, 64, 121, 2, -9, -4, 1936, 139
1486723894.6623666, -234, -190, -19, 76, 126, -5, -12, -18, 1936, 139
1486723894.6627598, -191, -187, -16, 90, 26, -25, -13, -23, 1936, 139
1486723894.6636353, -107, -185, 3, 82, -27, -28, -11, -18, 1936, 139
1486723894.6699069, -112, -191, -4, 67, 40, -15, -13, -13, 1936, 139
1486723894.6702483, -200, -188, -4, 70, 123, 5, -10, -9, 1936, 139
1486723894.6710231, -239, -185, -13, 88, 106, 252, -10, -7, 1936, 139
1486723894.6849382, -195, -198, -7, 111, 22, -35, -15, -24, 1936, 139
1486723894.6853201, -138, -205, 12, 107, -7, -24, -17, -8, 1936, 139
1486723894.6858203, -127, -198, 10, 81, 70, 0, -13, -8, 1936, 139
1486723894.686631, -183, -187, -5, 64, 121, 2, -9, -4, 1936, 139
1486723894.699853, -250, -199, -10, 95, 117, -7, -3, -10, 1936, 139
1486723894.7001948, -187, -207, -3, 109, 4, -25, -10, -22, 1936, 139
1486723894.7012544, -107, -185, 3, 82, -27, -28, -11, -18, 1936, 139
1486723894.707476, -236, -189, -7, 58, 129, -1, -13, -4, 1936, 139
1486723894.7078354, -200, -188, -4, 70, 123, 5, -10, -9, 1936, 139
1486723894.7222998, -157, -191, -11, 80, -19, -31, -8, -8, 1936, 139
1486723894.7229996, -95, -182, -1, 69, -12, -27, -10, -11, 1936, 139
1486723894.7236216, -146, -188, -2, 107, -7, -24, -17, -8, 1936, 139
1486723894.7373786, -233, -193, -17, 67, 140, 1, -14, -13, 1936, 139
1486723894.7377744, -247, -193, -14, 89, 82, -9, -13, -12, 1936, 139
1486723894.7386353, -146, -189, -13, 89, 117, -7, -3, -10, 1936, 139
1486723894.7448063, -86, -178, -7, 74, -9, -21, -12, -13, 1936, 139
1486723894.7451937, -132, -170, -4, 53, 83, 5, -13, -10, 1936, 139
1486723894.746133, -213, -176, -13, 61, 129, -1, -13, -4, 1936, 139
1486723894.7599003, -218, -184, -11, 89, 65, -15, -12, -18, 1936, 139
1486723894.7603388, -123, -181, -5, 88, 0, -19, -2, -21, 1936, 139
1486723894.7610893, -96, -179, 3, 65, 10, -27, -10, -11, 1936, 139
1486723894.775019, -145, -165, 7, 55, 101, 7, -9, -13, 1936, 139
1486723894.7754314, -225, -174, -6, 67, 121, -1, -14, -20, 1936, 139
1486723894.7759664, -212, -184, -14, 92, 63, -18, -17, -21, 1936, 139
1486723894.7823207, -103, -189, -6, 93, -12, -34, -13, -19, 1936, 139
1486723894.7826302, -89, -183, -3, 69, 10, -8, -5, -16, 1936, 139
1486723894.7840316, -156, -182, -5, 68, 129, 0, -13, -8, 1936, 139
1486723894.7974834, -236, -189, -14, 80, 128, -7, -20, -9, 1936, 139
1486723894.7977166, -190, -179, -14, 95, 56, -15, -7, -19, 1936, 139
1486723894.7989972, -98, -181, -4, 95, 240, -19, -2, -21, 1936, 139
1486723894.812408, -96, -179, -3, 70, 26, -11, -12, -10, 1936, 139
1486723894.8198397, -171, -174, -6, 62, 114, 6, -18, -3, 1936, 139
1486723894.8202076, -223, -176, -17, 76, 129, -7, -14, -20, 1936, 139
1486723894.820797, -179, -182, -17, 93, 51, -15, -9, -13, 1936, 139
1486723894.8218832, -92, -174, -15, 82, -25, -30, -13, -15, 1936, 139
1486723894.827512, -88, -170, -9, 60, 35, -5, -10, -16, 1936, 139
1486723894.835039, -173, -167, -12, 55, 106, -7, -16, -3, 1936, 139
1486723894.835414, -218, -167, -20, 73, 126, -3, -15, -14, 1936, 139
1486723894.8361416, -172, -181, -21, 85, 12, -23, -9, -15, 1936, 139
1486723894.8499167, -88, -173, -11, 71, -33, -28, -5, -16, 1936, 139
1486723894.8503296, -103, -161, -11, 44, 27, -9, -15, -7, 1936, 139
1486723894.8511071, -184, -170, -10, 48, 103, -4, -11, -9, 1936, 139
1486723894.8573697, -225, -171, -19, 62, 99, 0, -9, -12, 1936, 139
1486723894.8578222, -167, -176, -19, 80, 1, -30, -11, -17, 1936, 139
1486723894.8584447, -93, -175, -2, 72, -24, -24, -11, -10, 1936, 139
1486723894.8724015, -104, -160, 5, 50, 48, -8, -10, -5, 1936, 139
1486723894.8726346, -206, -168, -7, 55, 131, 2, -13, -4, 1936, 139
1486723894.8737848, -222, -172, -17, 69, 91, -10, -8, -19, 1936, 139
1486723894.8873763, -146, -167, -17, 77, -11, -23, -3, -21, 1936, 139
1486723894.887771, -82, -164, -5, 61, -18, -18, -9, -16, 1936, 139
1486723894.8884823, -111, -164, -7, 43, 61, -9, -15, -7, 1936, 139
1486723894.902441, -208, -163, -18, 46, 126, 5, -17, -8, 1936, 139
1486723894.9026673, -221, -169, -25, 69, 75, -13, -5, -8, 1936, 139
1486723894.9038217, -144, -168, -14, 78, -16, -28, -11, -17, 1936, 139
1486723894.9098735, -87, -170, 2, 67, -28, -23, -16, -18, 1936, 139
1486723894.910261, -123, -156, -2, 53, 68, -6, -24, -10, 1936, 139
1486723894.9109187, -214, -159, -14, 50, 124, -4, -23, -9, 1936, 139
1486723894.924904, -222, -162, -19, 64, 76, -12, -16, -16, 1936, 139
1486723894.925293, -125, -168, -21, 70, -14, -24, -8, -24, 1936, 139
1486723894.9260173, -71, -161, -7, 62, -1, -19, -13, -11, 1936, 139
1486723894.92677, -111, -164, -7, 43, 61, -4, -16, -13, 1936, 139
1486723894.9323804, -214, -154, -1, 58, 140, -5, -17, -9, 1936, 139
1486723894.932775, -205, -160, -7, 83, 63, -16, -19, -15, 1936, 139
1486723894.9334495, -102, -168, -14, 78, -16, -28, -13, -12, 1936, 139
1486723894.947502, -78, -156, -1, 59, -6, -22, -22, -9, 1936, 139
1486723894.947888, -132, -155, -8, 40, 103, 5, -18, -2, 1936, 139
1486723894.9486227, -217, -157, -14, 50, 124, -4, -23, -9, 1936, 139
1486723894.9624014, -197, -154, -12, 83, 51, -17, -10, -14, 1936, 139
1486723894.9627635, -85, -157, -3, 84, -20, -31, -7, -11, 1936, 139
1486723894.9636357, -77, -148, -249, 62, -1, -19, -13, -11, 1936, 139
1486723894.971647, -142, -151, -1, 51, 115, -2, -11, -9, 1936, 139
1486723894.9721255, -207, -145, -8, 61, 116, -3, -13, -3, 1936, 139
1486723894.972171, -182, -152, -9, 82, 63, -16, -19, -15, 1936, 139
1486723894.985075, -88, -149, -1, 77, -39, -23, -4, -14, 1936, 139
1486723894.98604, -81, -151, 0, 58, 29, -6, -11, -11, 1936, 139
1486723894.9864085, -149, -144, 1, 41, 103, 5, -18, -2, 1936, 139
1486723894.999858, -211, -145, -7, 55, 111, -3, -5, -12, 174, 1347
1486723895.0002444, -166, -154, -7, 76, 21, -24, -6, -13, 174, 1347
1486723895.0009232, -80, -148, 8, 72, -38, -27, -9, -11, 174, 1347
1486723895.0076396, -57, -145, 11, 45, 26, -3, -5, -13, 174, 1347
1486723895.0080159, -166, -146, 4, 41, 112, 4, -9, -15, 174, 1347
1486723895.0084388, -225, -152, -14, 51, 110, 1, -8, -5, 174, 1347
1486723895.0223298, -157, -149, -12, 65, 4, -30, -8, -13, 174, 1347
1486723895.0230653, -79, -149, -5, 61, -31, -31, -3, -12, 174, 1347
1486723895.0237708, -85, -145, 0, 39, 18, -16, -14, -17, 174, 1347
1486723895.0374694, -170, -137, -11, 35, 107, 6, -18, -6, 174, 1347
1486723895.0378792, -212, -145, -17, 52, 91, -17, -16, -6, 174, 1347
1486723895.0383527, -154, -152, -20, 67, -9, -25, -6, -13, 174, 1347
1486723895.0450847, -75, -146, -13, 56, -18, -24, -8, -15, 174, 1347
1486723895.0454938, -79, -145, -16, 34, 42, -12, -15, -8, 174, 1347
1486723895.0461166, -183, -146, -23, 33, 126, 0, -14, -15, 174, 1347
1486723895.0598311, -215, -144, -23, 54, 84, -8, -11, -12, 174, 1347
1486723895.0602007, -125, -145, -15, 67, -16, -30, -11, -14, 174, 1347
1486723895.0610683, -49, -142, -14, 48, -25, -24, -9, -10, 174, 1347
1486723895.0752687, -88, -134, -16, 32, 56, 1, -12, -6, 174, 1347
1486723895.0753355, -192, -140, -25, 36, 115, 7, -16, -2, 174, 1347
1486723895.076141, -202, -148, -28, 63, 69, -17, -16, -6, 174, 1347
1486723895.0824153, -111, -145, -19, 70, -6, -23, -9, -18, 174, 1347
1486723895.082812, -48, -140, -10, 57, -29, -25, -12, -9, 174, 1347
1486723895.0835412, -94, -134, -6, 42, 63, -3, -8, -8, 174, 1347
1486723895.0972688, -183, -144, -19, 41, 118, 4, -9, -1, 174, 1347
1486723895.097779, -197, -147, -27, 61, 62, -17, -18, -19, 174, 1347
1486723895.0984545, -95, -146, -21, 65, -13, -26, -5, -13, 174, 1347
1486723895.1123579, -43, -136, -11, 45, -10, -21, -11, -15, 174, 1347
1486723895.112697, -107, -133, -11, 27, 75, 0, -18, 1, 174, 1347
1486723895.1137888, -176, -131, -21, 38, 107, 4, -14, 0, 174, 1347
1486723895.1199062, -169, -142, -24, 62, 42, -14, -10, -17, 174, 1347
1486723895.120233, -78, -138, -21, 61, -16, -28, -10, -15, 174, 1347
1486723895.1210117, -45, -130, -14, 43, -14, -25, -12, -9, 174, 1347
1486723895.134906, -115, -135, -14, 33, 94, 6, -13, -1, 174, 1347
1486723895.1352663, -193, -138, -20, 45, 112, -6, -13, -9, 174, 1347
1486723895.1361513, -165, -136, -27, 65, 34, -15, -8, -19, 174, 1347
1486723895.1499012, -49, -135, -18, 70, -34, -19, -3, -11, 174, 1347
1486723895.157453, -34, -132, -17, 51, 5, -11, -12, -12, 174, 1347
1486723895.1578717, -121, -139, -17, 45, 110, 5, -11, 1, 174, 1347
1486723895.1585426, -184, -137, -23, 59, 105, -2, -16, -13, 174, 1347
1486723895.1592453, -140, -139, -26, 80, 39, -23, -15, -16, 174, 1347
1486723895.1649516, -45, -138, -20, 72, -35, -26, -14, -15, 174, 1347
1486723895.1724608, -37, -124, -12, 43, 9, -11, -13, -14, 174, 1347
1486723895.1732779, -124, -124, -18, 36, 96, 1, -9, -3, 174, 1347
1486723895.173944, -188, -138, -32, 57, 120, -3, -8, -8, 174, 1347
1486723895.1767495, -147, -136, -27, 65, 34, -15, -8, -22, 174, 1347
1486723895.187451, -53, -133, -9, 72, -35, -26, -14, -21, 174, 1347
1486723895.1884246, -50, -131, -4, 44, 33, -8, -11, -9, 174, 1347
1486723895.1897829, -143, -122, -9, 45, 110, 5, -11, -6, 174, 1347
1486723895.1949472, -189, -130, -22, 61, 90, -6, -15, -20, 174, 1347
1486723895.1959007, -128, -135, -13, 73, -6, -25, -14, -13, 174, 1347
1486723895.1975455, -51, -127, -10, 57, -35, -26, -14, -15, 174, 1347
1486723895.209913, -62, -123, -12, 35, 22, -9, -18, -3, 174, 1347
1486723895.2103562, -157, -127, -16, 40, 102, 7, -17, -7, 174, 1347
1486723895.2126472, -199, -129, -6, 59, 93, -3, -8, -8, 174, 1347
1486723895.2249603, -125, -135, -9, 73, -21, -28, -4, -18, 174, 1347
1486723895.2259054, -54, -131, 2, 57, -36, -26, -12, -13, 174, 1347
1486723895.2287521, -70, -122, 2, 39, 45, -5, -17, -9, 174, 1347
1486723895.2325053, -173, -128, -11, 57, 140, 6, -21, -11, 174, 1347
1486723895.2328186, -190, -143, -8, 84, 86, -5, -15, -10, 174, 1347
1486723895.234197, -92, -115, -2, 59, -35, -26, -17, -13, 174, 1347
1486723895.2473764, -10, -91, -17, 37, -34, -21, -14, -21, 174, 1347
1486723895.2484012, -29, -79, -32, 15, 41, -4, -12, -8, 174, 1347
1486723895.2505805, -89, -59, -55, 4, 99, 1, -16, -9, 174, 1347
1486723895.26246, -88, -42, -70, 13, 54, -14, -13, -17, 174, 1347
1486723895.263395, 27, -14, -74, 11, -37, -18, -11, -9, 174, 1347
1486723895.2648492, 109, 10, -72, -16, -53, -26, -12, -13, 174, 1347
1486723895.277588, 85, 39, -85, -47, 37, -5, -13, -3, 174, 1347
1486723895.2784042, 25, 61, -98, -54, 94, 1, -11, -6, 174, 1347
1486723895.2818012, 46, 82, -104, -47, 26, -9, -15, -10, 174, 1347
1486723895.285075, 158, 97, -105, -58, -69, -31, -16, -17, 174, 1347
1486723895.2859101, 223, 127, -100, -99, -70, -18, -14, -8, 174, 1347
1486723895.2864003, 167, 148, -99, -120, 23, 5, -14, -8, 174, 1347
1486723895.3009825, 111, 155, -110, -130, 45, -1, -16, -13, 174, 1347
1486723895.3013225, 128, 169, -117, -120, -23, -13, -15, -8, 174, 1347
1486723895.3014047, 231, 179, -112, -124, -105, -26, -8, -13, 174, 1347
1486723895.307427, 266, 190, -105, -157, -89, -13, -13, -18, 174, 1347
1486723895.308414, 204, 201, -109, -169, 20, 3, -19, -12, 174, 1347
1486723895.3120582, 138, 201, -122, -166, 22, 6, -18, -13, 174, 1347
1486723895.322478, 157, 193, -120, -146, -68, -8, -3, -18, 174, 1347
1486723895.3233624, 273, 196, -113, -147, -138, -19, -3, -10, 174, 1347
1486723895.3241985, 280, 199, -106, -173, -100, -18, -14, -8, 174, 1347
1486723895.3375034, 210, 199, -109, -179, 1, 10, -12, -8, 174, 1347
1486723895.3382182, 148, 194, -121, -157, 3, 2, -11, -12, 174, 1347
1486723895.3389606, 204, 192, -120, -133, -74, -19, -15, -8, 174, 1347
1486723895.3534517, 282, 194, -110, -131, -138, -30, -16, -21, 174, 1347
1486723895.3539312, 305, 200, -109, -151, -79, -12, -14, -14, 174, 1347
1486723895.3539686, 209, 197, -111, -158, -1, 5, -19, -12, 174, 1347
1486723895.3602946, 148, 191, -119, -148, 14, -1, -11, -17, 174, 1347
1486723895.360686, 189, 183, -126, -136, -94, -22, -8, -16, 174, 1347
1486723895.3635025, 280, 186, -114, -136, -148, -19, -6, -22, 174, 1347
1486723895.3758547, 286, 195, -110, -155, -68, -5, -9, -6, 174, 1347
1486723895.3765783, 192, 193, -110, -153, 2, 8, -16, -7, 174, 1347
1486723895.3766482, 152, 187, -113, -134, -10, -8, -13, -8, 174, 1347
1486723895.3899472, 199, 185, -111, -119, -112, -25, -9, -17, 174, 1347
1486723895.390659, 265, 185, -100, -127, -126, -23, -16, -18, 174, 1347
1486723895.391623, 273, 185, -101, -143, -61, -8, -14, -14, 174, 1347
1486723895.3974657, 167, 176, -118, 5119, 512, -5888, -2049, -6145, 174, 1347
1486723895.3983543, 213, 181, -113, -123, -119, -30, -12, -22, 174, 1347
1486723895.3991263, 189, 183, -126, -136, -94, -22, -8, -16, 174, 1347
1486723895.4124897, 268, 182, -101, -138, -44, -9, -8, -6, 174, 1347
1486723895.4134307, 171, 183, -110, -138, 25, 5, -13, -15, 174, 1347
1486723895.4150774, 160, 190, -113, -153, 2, 8, -16, -7, 174, 1347
1486723895.4350593, 244, 202, -111, -136, -138, -31, -13, -21, 174, 1347
1486723895.4356673, 317, 228, -104, -170, -156, -27, -14, -19, 174, 1347
1486723895.437934, 293, 241, -104, -198, -71, -23, -16, -18, 174, 1347
1486723895.4425554, 200, 249, -116, -212, -24, 0, -18, -15, 174, 1347
1486723895.4433234, 186, 250, -127, -204, -78, -14, -10, -5, 174, 1347
1486723895.4458206, 279, 261, -112, -199, -157, -24, -12, -22, 174, 1347
1486723895.4499774, 350, 275, -109, -228, -180, -13, -10, -18, 174, 1347
1486723895.4509015, 305, 274, -114, -240, -77, 9, -14, -4, 174, 1347
1486723895.4525099, 215, 266, -120, -138, 25, 5, -13, -15, 174, 1347
1486723895.4650633, 220, 262, -120, -207, -97, -4, -7, -16, 174, 1347
1486723895.4659116, 312, 264, -118, -212, -169, -27, -17, -21, 174, 1347
1486723895.467279, 366, 271, -116, -229, -152, -27, -14, -19, 174, 1347
1486723895.4725685, 298, 268, -116, -243, -64, 9, -13, -11, 174, 1347
1486723895.4734464, 224, 264, -126, -230, -47, 1, -10, -11, 174, 1347
1486723895.4747243, 231, 265, -126, -207, -116, -14, -10, -5, 174, 1347
1486723895.4874446, 333, 264, -120, -199, -177, -31, -13, -14, 174, 1347
1486723895.4884114, 359, 265, -115, -219, -163, -15, -12, -7, 174, 1347
1486723895.489345, 298, 267, -118, -233, -45, 4, -17, -15, 174, 1347
1486723895.5024707, 215, 261, -128, -220, -41, 3, -16, -13, 174, 1347
1486723895.5034044, 241, 254, -128, -196, -119, -21, -10, -14, 174, 1347
1486723895.5055282, 346, 255, -119, -196, -176, -25, -6, -16, 174, 1347
1486723895.510064, 354, 262, -114, -222, -139, -13, -16, -9, 174, 1347
1486723895.5109155, 270, 259, -119, -226, -46, 4, -17, -15, 174, 1347
1486723895.5116603, 211, 253, -129, -205, -34, -3, -13, -8, 174, 1347
1486723895.5248888, 252, 249, -124, -186, -116, -23, -12, -13, 174, 1347
1486723895.525703, 339, 248, -113, -189, -188, -31, -19, -14, 174, 1347
1486723895.5264235, 349, 255, -107, -211, -129, -16, -13, -7, 174, 1347
1486723895.5400913, 248, 256, -117, -218, -42, -5, -13, -6, 174, 1347
1486723895.5409462, 194, 246, -125, -204, -45, -5, -11, -12, 174, 1347
1486723895.5428908, 260, 242, -127, -186, -134, -29, -5, -11, 174, 1347
1486723895.5475218, 341, 245, -118, -194, -192, -22, -8, -13, 174, 1347
1486723895.548292, 332, 247, -114, -211, -118, -6, -11, -9, 174, 1347
1486723895.5496595, 238, 251, -112, -209, -58, 2, -12, -5, 174, 1347
1486723895.5624661, 212, 247, -125, -194, -49, -11, -21, -12, 174, 1347
1486723895.5634224, 270, 238, -127, -178, -153, -28, -10, -14, 174, 1347
1486723895.5641358, 344, 244, -115, -192, -179, -23, -9, -12, 174, 1347
1486723895.5774512, 330, 256, -112, -212, -110, -11, -9, -5, 174, 1347
1486723895.5783772, 223, 247, -118, -206, -29, -3, -13, -4, 174, 1347
1486723895.5798995, 202, 239, -122, -187, -52, -8, -5, -10, 174, 1347
1486723895.5856602, 284, 236, -118, -169, -155, -25, -10, -23, 174, 1347
1486723895.5864367, 349, 235, -116, -180, -158, -14, -4, -18, 174, 1347
1486723895.590589, 306, 240, -109, -197, -94, -2, -11, -9, 174, 1347
1486723895.6001134, 224, 246, -115, -190, -8, 7, -8, 0, 174, 1347
1486723895.600875, 211, 239, -121, -172, -76, -7, -8, -1, 174, 1347
1486723895.6013136, 287, 238, -116, -167, -165, -25, -1, -14, 174, 1347
1486723895.6150072, 344, 244, -105, -185, -184, -14, -10, -6, 174, 1347
1486723895.6159325, 300, 245, -107, -198, -90, -2, -13, -3, 174, 1347
1486723895.6177118, 213, 238, -112, -195, -29, 2, -16, -4, 174, 1347
1486723895.6223688, 200, 232, -112, -172, -91, -20, -12, -15, 174, 1347
1486723895.6228983, 300, 238, -106, -169, -163, -22, -6, -12, 174, 1347
1486723895.6318212, 350, 238, -98, -183, -161, -17, -4, -12, 174, 1347
1486723895.6374884, 290, 237, -99, -192, -58, -3, -14, -4, 174, 1347
1486723895.6382353, 216, 238, -102, -179, -18, -2, -17, -7, 174, 1347
1486723895.6390452, 214, 228, -101, -153, -84, -17, -13, -9, 174, 1347
1486723895.6439214, 298, 238, -116, -167, -165, -25, -1, -13, 174, 1347
1486723895.6523485, 330, 229, -90, -173, -153, -14, -11, -14, 174, 1347
1486723895.6534598, 267, 235, -95, -193, -37, 3, -17, 0, 174, 1347
1486723895.6542335, 192, 226, -102, -180, -29, 2, -16, -4, 174, 1347
1486723895.6602268, 199, 220, -105, -156, -97, -19, -13, -9, 174, 1347
1486723895.6606822, 305, 222, -96, -151, -172, -29, -9, -7, 174, 1347
1486723895.6642652, 350, 238, -98, -183, -161, -17, -4, -12, 174, 1347
1486723895.6750996, 244, 225, -84, -176, -26, 6, -15, -6, 174, 1347
1486723895.6759036, 174, 222, -93, -163, -22, -1, -15, -6, 174, 1347
1486723895.6771333, 214, 223, -88, -153, -84, -17, -13, -9, 174, 1347
1486723895.6898646, 302, 219, -85, -141, -165, -31, -19, -11, 174, 1347
1486723895.6955097, 311, 225, -77, -165, -113, -15, -19, -10, 174, 1347
1486723895.697086, 238, 219, -81, -172, -37, 3, -17, 0, 174, 1347
1486723895.6974726, 163, 216, -87, -150, -23, -9, -15, -15, 174, 1347
1486723895.6984572, 213, 219, -79, -124, -103, -32, -15, -13, 174, 1347
1486723895.7013595, 298, 218, -71, -128, -172, -29, -9, -7, 174, 1347
1486723895.7125063, 311, 222, -67, -148, -92, -5, -14, -14, 174, 1347
1486723895.7130182, 211, 226, -71, -156, -18, 2, -13, -8, 174, 1347
1486723895.717175, 159, 221, -82, -140, -35, -3, -17, -6, 174, 1347
1486723895.7276087, 235, 221, -84, -123, -131, -21, -9, -18, 174, 1347
1486723895.728135, 301, 217, -75, -136, -165, -34, -23, -23, 174, 1347
1486723895.7327626, 299, 219, -70, -160, -93, -7, -19, -8, 174, 1347
1486723895.735039, 196, 219, -70, -156, -32, 1, -16, -10, 174, 1347
1486723895.73595, 168, 209, -76, -128, -29, -3, -16, -25, 174, 1347
1486723895.7366257, 221, 211, -63, -113, -148, -28, -11, -16, 174, 1347
1486723895.750134, 305, 220, -51, -120, -151, -22, -7, -20, 2138, 1090
1486723895.750551, 288, 228, -46, -149, -97, -14, -12, -12, 2138, 1090
1486723895.75206, 190, 229, -52, -150, -19, 2, -13, -8, 2138, 1090
1486723895.765003, 160, 217, -64, -128, -48, -11, -14, -17, 2138, 1090
1486723895.7657, 239, 214, -61, -121, -152, -29, -8, -17, 2138, 1090
1486723895.7661924, 313, 216, -50, -134, -145, -30, -23, -23, 2138, 1090
1486723895.7725823, 259, 216, -47, -148, -74, 3, -13, -18, 2138, 1090
1486723895.7733605, 162, 211, -55, -148, -3, 15, -9, -9, 2138, 1090
1486723895.7754724, 147, 201, -61, -119, -57, -12, -10, -25, 2138, 1090
1486723895.7874782, 233, 197, -63, -109, -137, -32, -12, -19, 2138, 1090
1486723895.7915885, 296, 212, -53, -127, -158, -21, -11, -13, 2138, 1090
1486723895.797275, 248, 209, -55, -138, -54, 2, -10, -5, 2138, 1090
1486723895.8024747, 170, 210, -54, -133, 6, 4, -8, -11, 2138, 1090
1486723895.803415, 154, 203, -61, -105, -57, -13, -9, -15, 2138, 1090
1486723895.8075333, 251, 198, -54, -91, -125, -21, -255, -17, 2138, 1090
1486723895.8100505, 293, 195, -43, -106, -118, -17, -5, -9, 2138, 1090
1486723895.8109498, 234, 198, -48, -125, -24, -3, -11, -7, 2138, 1090
1486723895.8121567, 154, 200, -54, -121, -5, -3, -12, -12, 2138, 1090
1486723895.8250678, 171, 196, -57, -100, -59, -18, -11, -12, 2138, 1090
1486723895.8259995, 266, 196, -53, -98, -137, -28, -11, -11, 2138, 1090
1486723895.8266363, 294, 200, -43, -111, -124, -21, -10, -14, 2138, 1090
1486723895.8400676, 222, 204, -39, -119, -19, 1, -16, -16, 2138, 1090
1486723895.8406854, 144, 196, -52, -110, 3, -1, -11, -18, 2138, 1090
1486723895.8467607, 161, 196, -49, -91, -74, -13, -9, -15, 2138, 1090
1486723895.847813, 258, 187, -41, -85, -140, -24, -10, -14, 2138, 1090
1486723895.848194, 272, 189, -31, -99, -85, -12, -11, -10, 2138, 1090
1486723895.8494627, 195, 196, -25, -108, 4, 0, -11, -6, 2138, 1090
1486723895.8623447, 126, 191, -32, -90, 6, -7, -13, -9, 2138, 1090
1486723895.8630757, 170, 185, -34, -73, -68, -26, -9, -19, 2138, 1090
1486723895.8647068, 272, 191, -30, -80, -130, -31, -12, -16, 2138, 1090
1486723895.8783476, 267, 190, -24, -104, -90, -10, -14, -11, 2138, 1090
1486723895.878622, 190, 187, -27, -114, 0, 2, -13, -6, 2138, 1090
1486723895.8786592, 124, 179, -41, -97, 0, -5, -15, -8, 2138, 1090
1486723895.885274, 181, 180, -41, -81, -81, -25, -11, -13, 2138, 1090
1486723895.8861969, 257, 180, -26, -78, -138, -28, -12, -21, 2138, 1090
1486723895.8865201, 263, 184, -15, -99, -74, -7, -9, -10, 2138, 1090
1486723895.8874457, 161, 196, -25, -108, 4, 0, -11, -6, 2138, 1090
1486723895.9000752, 120, 190, -23, -78, -8, -4, -17, -19, 2138, 1090
1486723895.900907, 191, 184, -19, -66, -101, -35, -13, -12, 2138, 1090
1486723895.9019341, 260, 188, -7, -72, -130, -31, -12, -16, 2138, 1090
1486723895.9149911, 253, 193, -7, -99, -73, -7, -10, -9, 2138, 1090
1486723895.9159393, 151, 195, -16, -104, -5, 6, -12, -3, 2138, 1090
1486723895.9178138, 123, 185, -24, -80, -13, -5, -15, -8, 2138, 1090
1486723895.9225135, 190, 188, -17, -69, -128, -26, -11, -13, 2138, 1090
1486723895.9234238, 261, 190, -6, -84, -143, -15, -5, -14, 2138, 1090
1486723895.9237432, 243, 194, -4, -105, -67, 0, -9, -10, 2138, 1090
1486723895.9375672, 131, 189, -7, -99, 2, 1, -10, -5, 2138, 1090
1486723895.9385822, 122, 186, -12, -75, -32, -20, -13, -2, 2138, 1090
1486723895.939259, 204, 183, -6, -64, -132, -30, -9, -12, 2138, 1090
1486723895.9524665, 268, 188, 3, -72, -137, -26, -12, -9, 2138, 1090
1486723895.9546754, 221, 196, 8, -93, -70, -8, -13, -9, 2138, 1090
1486723895.9553347, 142, 192, -3, -85, 2, 3, -13, -3, 2138, 1090
1486723895.9609172, 119, 181, -1, -60, -51, -16, -12, -7, 2138, 1090
1486723895.9636674, 200, 186, 2, -58, -133, -29, -13, -21, 2138, 1090
1486723895.9657054, 270, 193, 16, -68, -141, -19, -5, -6, 2138, 1090
1486723895.975951, 212, 189, 11, -84, -35, -5, -15, -8, 2138, 1090
1486723895.9769542, 128, 183, 4, -73, 25, 2, -17, -9, 2138, 1090
1486723895.9779212, 126, 180, 6, -48, -51, -16, -13, -2, 2138, 1090
1486723895.990142, 219, 175, 7, -44, -119, -26, -1, -23, 2138, 1090
1486723895.991031, 257, 187, 21, -61, -109, -27, -15, -20, 2138, 1090
1486723895.9930966, 194, 195, 27, -80, -11, -2, -13, -9, 2138, 1090
1486723895.997637, 127, 192, 16, -71, 12, -5, -12, -11, 2138, 1090
1486723895.9982154, 125, 186, 18, -44, -49, -27, -9, -8, 2138, 1090
1486723895.9988053, 222, 181, 23, -42, -134, -26, -6, -21, 2138, 1090
1486723896.0124614, 251, 187, 31, -63, -117, -19, -11, -11, 2138, 1090
1486723896.0133305, 177, 187, 25, -87, -14, 1, -18, -2, 2138, 1090
1486723896.0137868, 103, 183, 20, -76, -9, 0, -14, -13, 2138, 1090
1486723896.027495, 115, 153, 26, -15, -63, -24, -14, -12, 2138, 1090
1486723896.0286238, 211, 133, 27, 1, -115, -19, -2, -15, 2138, 1090
1486723896.0293872, 195, 113, 30, -3, -57, -12, -9, -9, 2138, 1090
1486723896.0353992, 116, 97, 27, 10, 49, -1, -15, -15, 2138, 1090
1486723896.0365016, 43, 75, 18, 49, 72, -3, -10, -14, 2138, 1090
1486723896.0365999, 71, 44, 14, 90, 4, -27, -9, -8, 2138, 1090
1486723896.0500216, 136, 14, 19, 114, -41, -36, -8, -21, 2138, 1090
1486723896.050974, 125, -7, 33, 115, 14, -6, -8, -9, 2138, 1090
1486723896.0556326, 44, -18, 24, 125, 123, -3, -18, -2, 2138, 1090
1486723896.065112, -40, -56, 10, 163, 130, -4, -14, -11, 2138, 1090
1486723896.0661068, 3, -88, 7, 200, 39, -30, -15, -27, 2138, 1090
1486723896.066436, 74, -106, 13, 216, 0, -24, -10, -15, 2138, 1090
1486723896.0725248, 66, -128, 12, 210, 75, -9, -12, -16, 2138, 1090
1486723896.0729113, -41, -148, 11, 233, 166, 4, -19, -18, 2138, 1090
1486723896.073544, -88, -170, -1, 272, 158, -1, -13, -17, 2138, 1090
1486723896.0874112, -31, -195, 7, 304, 73, -21, -13, -19, 2138, 1090
1486723896.0878127, 26, -197, 19, 305, 52, -20, -6, -12, 2138, 1090
1486723896.0885656, 23, -216, 16, 297, 106, -6, -8, -9, 2138, 1090
1486723896.1024382, -74, -220, 2, 289, 189, 3, -11, -6, 2138, 1090
1486723896.1028373, -102, -225, -4, 314, 165, -7, -16, -22, 2138, 1090
1486723896.1035407, -29, -237, -5, 331, 52, -18, -9, -14, 2138, 1090
1486723896.109942, 40, -235, 2, 321, 48, -26, -12, -22, 2138, 1090
1486723896.1103554, 17, -230, 1, 297, 120, -5, -18, -15, 2138, 1090
1486723896.111055, -91, -231, -1, 299, 195, 8, -15, -17, 2138, 1090
1486723896.1116884, -88, -170, -1, 272, 158, -1, -13, -17, 2138, 1090
1486723896.1252842, -17, -239, 4, 336, 46, -27, -14, -26, 2138, 1090
1486723896.1255827, 49, -233, 10, 323, 39, -16, -9, -16, 2138, 1090
1486723896.1263165, 2, -229, 16, 297, 106, -11, -14, -6, 2138, 1090
1486723896.1400294, -90, -225, 4, 302, 181, 2, -9, -12, 2138, 1090
1486723896.1404152, -102, -230, 1, 320, 127, -13, -5, -9, 2138, 1090
1486723896.141186, -3, -232, -5, 331, 52, -18, -9, -14, 2138, 1090
1486723896.1473832, 46, -223, 12, 310, 38, -17, -8, -17, 2138, 1090
1486723896.1477385, -1, -220, 12, 298, 143, 3, -13, -13, 2138, 1090
1486723896.1489282, -80, -221, 10, 313, 195, 8, -15, -17, 2138, 1090
1486723896.1624894, -83, -229, 7, 339, 124, -10, -8, -16, 2138, 1090
1486723896.162725, 1, -237, 14, 345, 42, -30, -8, -13, 2138, 1090
1486723896.163866, 52, -233, 21, 325, 73, -18, -9, -16, 2138, 1090
1486723896.1775918, -10, -230, 22, 314, 160, -3, -17, -4, 2138, 1090
1486723896.1780126, -86, -231, 12, 321, 179, -5, -15, -17, 2138, 1090
1486723896.1786754, -67, -229, 11, 338, 111, -20, -5, -9, 2138, 1090
1486723896.185009, 21, -237, 19, 336, 27, -28, -9, -16, 2138, 1090
1486723896.185407, 46, -229, 27, 322, 63, -14, -11, -11, 2138, 1090
1486723896.1861374, -17, -221, 25, 310, 167, 6, -19, -13, 2138, 1090
1486723896.199996, -95, -229, 21, 331, 175, 4, -12, -14, 2138, 1090
1486723896.2003841, -77, -231, 39, 346, 83, -16, 1, -9, 2138, 1090
1486723896.200998, 26, -228, 41, 346, 28, -26, -12, -20, 2138, 1090
1486723896.2150018, 37, -219, 54, 335, 86, -21, -18, -18, 2138, 1090
1486723896.2154129, -46, -225, 49, 327, 180, -1, -21, -18, 2138, 1090
1486723896.2161818, -118, -237, 45, 345, 183, -6, -18, -19, 2138, 1090
1486723896.2226214, -85, -240, 48, 364, 101, -27, -19, -26, 2138, 1090
1486723896.223042, 8, -232, 67, 357, 37, -32, -14, -20, 2138, 1090
1486723896.223565, 10, -230, 70, 334, 90, -13, -14, -13, 2138, 1090
1486723896.237415, -66, -226, 65, 326, 172, -4, -19, -8, 2138, 1090
1486723896.2378056, -131, -230, 57, 336, 166, -2, -14, -17, 2138, 1090
1486723896.2387652, -84, -232, 57, 351, 73, -26, -9, -24, 2138, 1090
1486723896.2525237, 4, -227, 60, 339, 30, -28, -19, -22, 2138, 1090
1486723896.252911, 18, -214, 62, 316, 91, -7, -17, -12, 2138, 1090
1486723896.2536442, -80, -224, 53, 319, 165, 1, -17, -8, 2138, 1090
1486723896.2600198, -127, -229, 47, 338, 151, -7, -15, -17, 2138, 1090
1486723896.2603855, -61, -226, 51, 346, 60, -30, -9, -17, 2138, 1090
1486723896.261075, 22, -219, 63, 333, 29, -25, -16, -17, 2138, 1090
1486723896.2749786, 22, -216, 63, 312, 97, -9, -17, -10, 2138, 1090
1486723896.2753384, -92, -217, 54, 310, 175, 0, -18, -13, 2138, 1090
1486723896.2762942, -102, -218, 49, 330, 150, -2, -14, -17, 2138, 1090
1486723896.2899644, -44, -225, 51, 347, 44, -22, -8, -20, 2138, 1090
1486723896.2903707, 21, -216, 69, 334, 33, -23, -5, -16, 2138, 1090
1486723896.2913055, -7, -210, 74, 317, 111, -7, -17, -12, 2138, 1090
1486723896.2974927, -113, -212, 67, 320, 178, 4, -13, -17, 2138, 1090
1486723896.297882, -121, -219, 64, 340, 126, -10, -11, -20, 2138, 1090
1486723896.2987936, -40, -220, 64, 343, 41, -24, -11, -17, 2138, 1090
1486723896.3124692, 37, -216, 76, 326, 37, -11, -6, -15, 2138, 1090
1486723896.3128328, -28, -212, 80, 312, 109, 0, -12, -12, 2138, 1090
1486723896.3135452, -107, -214, 69, 320, 168, 2, -16, -13, 2138, 1090
1486723896.3280163, -114, -220, 64, 338, 118, -9, -13, -19, 2138, 1090
1486723896.3284862, -19, -218, 71, 345, 42, -20, -3, -17, 2138, 1090
1486723896.328831, 33, -217, 89, 337, 42, -18, -12, -7, 2138, 1090
1486723896.334948, -42, -218, 89, 328, 141, 5, -20, -8, 2138, 1090
1486723896.3353488, -116, -207, 86, 326, 183, 8, -17, -15, 2138, 1090
1486723896.3360293, -110, -216, 80, 355, 125, -6, -11, -16, 2138, 1090
1486723896.3499553, -27, -219, 87, 353, 57, -26, -13, -15, 2138, 1090
1486723896.3503544, 9, -210, 91, 329, 54, -13, -13, -21, 2138, 1090
1486723896.3511906, -52, -207, 93, 314, 157, 1, -16, -10, 2138, 1090
1486723896.3521516, -107, -214, 69, 320, 168, 2, -16, -5, 2138, 1090
1486723896.365009, -114, -208, 80, 344, 104, -15, -15, -21, 2138, 1090
1486723896.3652692, -18, -204, 94, 346, 27, -22, -13, -19, 2138, 1090
1486723896.3663094, 0, -205, 89, 337, 42, -18, -12, -7, 2138, 1090
1486723896.3724792, -78, -205, 96, 319, 165, -3, -20, -11, 2138, 1090
1486723896.3728888, -151, -206, 88, 333, 164, -4, -18, -11, 2138, 1090
1486723896.3735719, -112, -215, 92, 355, 125, -6, -11, -16, 2138, 1090
1486723896.3874586, -12, -210, 100, 349, 22, -32, -11, -18, 2138, 1090
1486723896.3878489, -1, -200, 108, 333, 81, -14, -15, -15, 2138, 1090
1486723896.388702, -77, -206, 103, 330, 157, 1, -16, -10, 2138, 1090
1486723896.4027104, -144, -213, 99, 352, 183, -2, -11, -14, 2138, 1090
1486723896.4031055, -89, -213, 102, 370, 91, -21, -14, -17, 2138, 1090
1486723896.403692, -11, -211, 115, 362, 30, -22, -13, -19, 2138, 1090
1486723896.4099782, -8, -204, 115, 333, 81, -9, -13, -8, 2138, 1090
1486723896.410378, -89, -203, 110, 325, 159, -9, -24, -14, 2138, 1090
1486723896.411319, -146, -207, 105, 343, 150, -7, -18, -11, 2138, 1090
1486723896.4252045, -88, -211, 108, 361, 59, -30, -6, -17, 2138, 1090
1486723896.425661, -13, -204, 119, 356, 34, -22, -15, -19, 2138, 1090
1486723896.426355, -14, -199, 128, 339, 91, -7, -12, -13, 2138, 1090
1486723896.4399645, -112, -199, 130, 338, 162, 6, -14, -6, 2138, 1090
1486723896.4403672, -145, -208, 118, 358, 159, 2, -6, -15, 2138, 1090
1486723896.4410403, -74, -209, 119, 368, 47, -26, -8, -12, 2138, 1090
1486723896.4475234, -14, -200, 133, 352, 32, -21, -14, -13, 2138, 1090
1486723896.4477494, -18, -191, 128, 327, 99, -5, -12, -6, 2138, 1090
1486723896.448615, -126, -189, 123, 326, 172, 0, -14, -5, 2138, 1090
1486723896.4625013, -141, -195, 112, 349, 138, -14, -11, -9, 2138, 1090
1486723896.4629161, -54, -194, 109, 349, 25, -26, -9, -8, 2138, 1090
1486723896.4638352, 1, -189, 125, 343, 32, -22, -15, -19, 2138, 1090
1486723896.4774919, -39, -190, 126, 327, 115, -6, -12, -5, 2138, 1090
1486723896.4778483, -133, -188, 124, 328, 182, 3, -15, -7, 2138, 1090
1486723896.4785771, -136, -191, 124, 352, 130, -13, -11, -15, 2138, 1090
1486723896.485045, -74, -195, 131, 361, 37, -28, -4, -12, 2138, 1090
1486723896.485437, -6, -188, 141, 341, 26, -22, -9, -20, 2138, 1090
1486723896.4860754, -49, -178, 139, 320, 119, -8, -22, -6, 2138, 1090
1486723896.4999814, -132, -180, 130, 321, 179, 2, -15, -11, 2138, 1090
1486723896.5003703, -149, -187, 130, 343, 101, -16, -11, -5, 2138, 1090
1486723896.501343, -52, -186, 137, 347, 33, -31, -9, -18, 2138, 1090
1486723896.51492, 1, -179, 144, 335, 48, -15, -10, -14, 2138, 1090
1486723896.5153255, -56, -171, 150, 311, 136, -2, -17, -9, 2138, 1090
1486723896.516158, -140, -180, 141, 324, 159, 3, -15, -7, 2138, 1090
1486723896.5225058, -136, -184, 137, 346, 101, -24, -11, -22, 2138, 1090
1486723896.522889, -36, -186, 147, 352, 41, -29, -8, -19, 2138, 1090
1486723896.5237982, -17, -179, 156, 329, 37, -17, -12, -20, 2138, 1090
1486723896.5374699, -70, -173, 154, 311, 156, 2, -23, -7, 2138, 1090
1486723896.5378997, -157, -175, 146, 320, 169, -3, -18, -6, 2138, 1090
1486723896.5388515, -138, -183, 148, 341, 100, -23, -10, -17, 2138, 1090
1486723896.5524256, -49, -183, 148, 339, 13, -23, -7, -10, 2138, 1090
1486723896.5528097, -24, -171, 150, 315, 61, -15, -9, -8, 2138, 1090
1486723896.5536835, -96, -173, 158, 313, 158, -2, -20, -4, 2138, 1090
1486723896.559985, -169, -177, 148, 327, 161, -5, -15, -9, 2138, 1090
1486723896.560385, -129, -175, 152, 349, 89, -18, -13, -21, 2138, 1090
1486723896.5613277, -31, -175, 157, 346, 27, -25, -8, -19, 2138, 1090
1486723896.5750277, -8, -170, 161, 332, 93, -15, -15, -8, 2138, 1090
1486723896.5754983, -98, -182, 154, 324, 169, 3, -8, -13, 2138, 1090
1486723896.5763023, -156, -182, 141, 341, 184, -6, -15, -8, 2138, 1090
1486723896.590041, -112, -182, 144, 358, 85, -27, -11, -17, 2138, 1090
1486723896.5904305, -32, -183, 156, 353, 28, -29, -12, -16, 2138, 1090
1486723896.5913203, -25, -175, 161, 332, 87, -7, -13, -9, 2138, 1090
1486723896.5974615, -111, -168, 160, 331, 169, 2, -14, -3, 2138, 1090
1486723896.59783, -168, -182, 152, 350, 157, -5, -18, -15, 2138, 1090
1486723896.5986912, -110, -183, 154, 363, 62, -28, -4, -21, 2138, 1090
1486723896.5994594, -36, -172, 157, 346, 27, -25, -8, -16, 2138, 1090
1486723896.6123846, -40, -167, 170, 326, 95, -6, -15, -18, 2138, 1090
1486723896.6127822, -138, -166, 163, 323, 176, 8, -19, -8, 2138, 1090
1486723896.61385, -166, -170, 160, 343, 184, -6, -15, -8, 2138, 1090
1486723896.6275434, -104, -168, 166, 355, 57, -21, -9, -17, 2138, 1090
1486723896.6279309, -30, -170, 173, 346, 42, -26, -12, -17, 2138, 1090
1486723896.6287432, -42, -170, 170, 329, 87, -7, -13, -9, 2138, 1090
1486723896.635083, -156, -170, 165, 332, 182, 9, -17, -11, 2138, 1090
1486723896.6391761, -169, -174, 163, 355, 147, -13, -9, -13, 2138, 1090
1486723896.643537, -92, -168, 175, 367, 48, -28, -4, -21, 2138, 1090
1486723896.6509771, -25, -166, 191, 357, 46, -25, -12, -21, 2138, 1090
1486723896.6524405, -77, -166, 193, 337, 118, -12, -20, -8, 2138, 1090
1486723896.654977, -164, -167, 183, 342, 185, 6, -20, -8, 2138, 1090
1486723896.666019, -172, -172, 182, 360, 133, -22, -12, -14, 2138, 1090
1486723896.6697645, -92, -172, 187, 364, 49, -29, -15, -16, 2138, 1090
1486723896.6701074, -25, -163, 197, 343, 35, -20, -17, -17, 2138, 1090
1486723896.6735325, -87, -162, 197, 328, 125, -6, -19, -15, 2138, 1090
1486723896.6759129, -171, -157, 196, 334, 185, 3, -19, -20, 2138, 1090
1486723896.6816468, -173, -160, 195, 361, 117, -14, -12, -15, 2138, 1090
1486723896.688521, -75, -163, 197, 361, 47, -28, -11, -17, 2138, 1090
1486723896.6885912, -37, -160, 205, 344, 54, -13, -9, -10, 2138, 1090
1486723896.69225, -104, -160, 209, 333, 145, 0, -20, -8, 2138, 1090
1486723896.7034945, -179, -164, 209, 350, 173, -7, -19, -13, 2138, 1090
1486723896.7042277, -166, -166, 212, 369, 112, -22, -18, -17, 2138, 1090
1486723896.7045128, -65, -164, 219, 364, 47, -19, -7, -15, 2138, 1090
1486723896.7100806, -56, -164, 228, 352, 56, -16, -11, -15, 2138, 1090
1486723896.711105, -119, -155, 232, 334, 162, 1, -16, -11, 2138, 1090
1486723896.7130723, -199, -152, 224, 339, 173, 7, -15, -11, 2138, 1090
1486723896.7250938, -161, -159, 217, 366, 101, -21, -13, -22, 2138, 1090
1486723896.7261224, -61, -158, 227, 369, 23, -34, -16, -16, 2138, 1090
1486723896.7263896, -57, -149, 233, 340, 64, -13, -9, -10, 2138, 1090
1486723896.7402432, -130, -142, 227, 328, 164, -2, -15, -11, 2138, 1090
1486723896.7409306, -193, -144, 226, 348, 171, -7, -16, -15, 2138, 1090
1486723896.7436244, -154, -150, 229, 368, 97, -20, -18, -17, 2138, 1090
1486723896.7475128, -66, -148, 239, 367, 25, -29, -5, -14, 2138, 1090
1486723896.7484093, -63, -147, 244, 349, 81, -17, -9, -8, 2138, 1090
1486723896.7490094, -148, -140, 247, 341, 170, -3, -17, -11, 2138, 1090
1486723896.7624662, -209, -148, 249, 367, 182, -9, -12, -12, 2138, 1090
1486723896.7634826, -158, -152, 250, 382, 69, -26, -9, -30, 2138, 1090
1486723896.7659423, -74, -151, 257, 376, 27, -27, -12, -22, 2138, 1090
1486723896.7777617, -77, -147, 265, 361, 91, -17, -10, -11, 2138, 1090
1486723896.7782698, -173, -145, 265, 354, 166, -5, -12, -14, 2138, 1090
1486723896.7788043, -214, -147, 258, 372, 152, -5, -12, -13, 2138, 1090
1486723896.7850144, -149, -156, 256, 388, 56, -31, -9, -19, 2138, 1090
1486723896.7860053, -94, -154, 268, 374, 31, -27, -8, -14, 2138, 1090
1486723896.7879436, -90, -143, 278, 354, 87, -16, -9, -8, 2138, 1090
1486723896.8007882, -188, -148, 273, 361, 176, 3, -7, -2, 2138, 1090
1486723896.8015099, -219, -162, 268, 383, 154, -9, -13, -14, 2138, 1090
1486723896.803896, -143, -155, 273, 393, 47, -23, -9, -30, 2138, 1090
1486723896.8151026, -80, -148, 281, 377, 36, -25, -9, -11, 2138, 1090
1486723896.8163576, -106, -145, 287, 359, 105, -6, -16, -13, 2138, 1090
1486723896.820225, -208, -147, 283, 361, 178, 2, -26, -15, 2138, 1090
1486723896.8225503, -220, -147, 280, 379, 130, -12, -13, -16, 2138, 1090
1486723896.8233886, -146, -151, 288, 389, 37, -23, -5, -19, 2138, 1090
1486723896.8237364, -96, -145, 307, 374, 30, -22, -8, -13, 2138, 1090
1486723896.8289838, -90, -143, 278, 354, 87, -16, -6, -7, 2138, 1090
1486723896.8402827, -219, -137, 306, 353, 172, -4, -18, -9, 910, 1240
1486723896.8417656, -229, -143, 301, 381, 125, -15, -18, -21, 910, 1240
1486723896.8418639, -140, -136, 306, 393, 47, -23, -6, -19, 910, 1240
1486723896.8524637, -94, -135, 325, 374, 31, -15, -11, -12, 910, 1240
1486723896.853246, -148, -136, 322, 357, 125, -5, -22, -12, 910, 1240
1486723896.853783, -218, -136, 317, 361, 178, 2, -26, -15, 910, 1240
1486723896.8633473, -228, -145, 312, 382, 94, -21, -12, -14, 910, 1240
1486723896.8676732, -150, -140, 326, 390, 41, -36, -11, -20, 910, 1240
1486723896.869598, -111, -139, 338, 372, 30, -22, -8, -13, 910, 1240
1486723896.875104, -171, -135, 341, 359, 152, 0, -13, -1, 910, 1240
1486723896.876009, -248, -140, 335, 372, 175, -5, -13, -12, 910, 1240
1486723896.8764093, -234, -146, 335, 399, 108, -15, -18, -21, 910, 1240
1486723896.8900478, -133, -149, 344, 403, 29, -33, -6, -14, 910, 1240
1486723896.8909798, -111, -134, 356, 384, 50, -13, -11, -14, 910, 1240
1486723896.8945584, -168, -133, 357, 373, 156, -2, -22, -12, 910, 1240
1486723896.8975666, -253, -135, 354, 387, 160, -1, -17, -14, 910, 1240
1486723896.8984249, -233, -142, 357, 406, 74, -24, -10, -25, 910, 1240
1486723896.898841, -133, -137, 367, 404, 3, -24, -10, -16, 910, 1240
1486723896.9125094, -124, -128, 372, 381, 58, -21, -11, -20, 910, 1240
1486723896.9134579, -200, -128, 377, 379, 142, -4, -16, -10, 910, 1240
1486723896.916925, -272, -136, 372, 398, 159, -5, -13, -12, 910, 1240
1486723896.927575, -226, -143, 374, 422, 83, -27, -6, -21, 910, 1240
1486723896.9285192, -141, -140, 385, 412, 21, -34, -9, -19, 910, 1240
1486723896.930357, -123, -128, 396, 391, 67, -13, -11, -14, 910, 1240
1486723896.9350362, -220, -128, 396, 382, 147, -1, -15, -8, 910, 1240
1486723896.9357498, -282, -132, 393, 401, 158, 0, -11, -11, 910, 1240
1486723896.9375749, -230, -131, 397, 422, 56, -25, -10, -25, 910, 1240
1486723896.9502656, -145, -134, 406, 414, 3, -35, -18, -18, 910, 1240
1486723896.950781, -151, -127, 413, 393, 64, -12, -16, -3, 910, 1240
1486723896.9534247, -241, -125, 413, 396, 144, 4, -15, -18, 910, 1240
1486723896.9649868, -275, -133, 407, 414, 137, 2, -4, -15, 910, 1240
1486723896.9653387, -226, -135, 412, 425, 20, -28, -3, -12, 910, 1240
1486723896.969192, -154, -132, 424, 413, 1, -29, -14, -18, 910, 1240
1486723896.9725614, -149, -121, 426, 393, 73, -9, -10, -11, 910, 1240
1486723896.9734418, -251, -121, 428, 400, 151, 9, -13, -10, 910, 1240
1486723896.9745574, -288, -126, 422, 420, 125, 0, -11, -11, 910, 1240
1486723896.9875772, -205, -127, 429, 431, 21, -27, -8, -14, 910, 1240
1486723896.988452, -147, -127, 441, 415, 11, -39, -17, -12, 910, 1240
1486723896.9890206, -177, -129, 444, 402, 97, -2, -16, -3, 910, 1240
1486723897.003476, -278, -120, 447, 404, 154, -1, -6, -9, 910, 1240
1486723897.0039787, -300, -130, 440, 424, 102, -14, -12, -11, 910, 1240
1486723897.0062096, -225, -127, 451, 438, 14, -34, -15, -12, 910, 1240
1486723897.0110455, -156, -122, 459, 422, 10, -25, -6, -11, 910, 1240
1486723897.0162733, -199, -116, 465, 403, 86, -3, -14, 0, 910, 1240
1486723897.0199227, -290, -117, 460, 408, 156, 0, -17, -12, 910, 1240
1486723897.0259666, -311, -132, 456, 434, 108, -16, -11, -15, 910, 1240
1486723897.0263069, -221, -136, 465, 440, 24, -18, -3, -16, 910, 1240
1486723897.0280142, -150, -131, 475, 422, 12, -39, -17, -12, 910, 1240
1486723897.0410304, -213, -125, 479, 403, 106, 2, -12, -9, 910, 1240
1486723897.0428052, -301, -125, 475, 414, 155, -5, -16, -13, 910, 1240
1486723897.0457544, -310, -131, 477, 437, 78, -17, -8, -11, 910, 1240
1486723897.0483923, -211, -131, 485, 439, 28, -26, -3, -15, 910, 1240
1486723897.0484626, -177, -121, 496, 420, 36, -12, -17, -17, 910, 1240
1486723897.0513067, -243, -121, 496, 408, 129, 6, -18, -14, 910, 1240
1486723897.0524452, -290, -117, 460, 408, 156, 0, -17, -12, 910, 1240
1486723897.0626168, -306, -126, 492, 436, 78, -15, -11, -27, 910, 1240
1486723897.0636172, -201, -134, 506, 451, 15, -26, -11, -21, 910, 1240
1486723897.0665236, -186, -125, 475, 422, 12, -24, -12, -11, 910, 1240
1486723897.0774963, -252, -90, 530, 387, 118, 0, -16, -7, 910, 1240
1486723897.0786161, -324, -81, 516, 391, 120, -3, -16, -8, 910, 1240
1486723897.078922, -279, -82, 519, 407, 78, -17, -8, -11, 910, 1240
1486723897.0851042, -186, -51, 536, 380, -27, -28, -11, -22, 910, 1240
1486723897.0861163, -164, -18, 546, 337, 12, -10, -14, -17, 910, 1240
1486723897.0876052, -241, 3, 552, 311, 129, 6, -18, -14, 910, 1240
1486723897.100116, -307, 25, 554, 309, 102, -6, -11, -10, 910, 1240
1486723897.1075828, -256, 43, 560, 303, 7, -24, -13, -21, 910, 1240
1486723897.108382, -169, 69, 579, 282, -64, -26, -11, -21, 910, 1240
1486723897.1090457, -151, 94, 586, 252, -14, -12, -14, -18, 910, 1240
1486723897.1106555, -244, 118, 589, 222, 62, 3, -8, -5, 910, 1240
1486723897.1159792, -288, 123, 584, 232, 58, -3, -16, -8, 910, 1240
1486723897.1226156, -225, 136, 592, 241, -41, -27, -9, -19, 910, 1240
1486723897.1241455, -133, 144, 599, 228, -83, -29, -9, -17, 910, 1240
1486723897.130729, -147, 142, 605, 211, -31, -8, -13, -17, 910, 1240
