# changed electrodes!!!!
t, ch0, ch1, ch2, ch3, ch4, ch5, ch6, ch7, x, y
1486726348.1937737, -66, 74, 2, 56, -12, -19, -13, -15, 0, 0
1486726348.1938124, -67, 71, 2, 68, -11, -14, -14, -12, 0, 0
1486726348.193848, -63, 66, 16, 81, -7, -15, -17, -13, 0, 0
1486726348.1938794, -69, 66, 36, 75, -12, -12, -11, -14, 0, 0
1486726348.1938999, -68, 73, 32, 69, -15, -10, -1, -12, 0, 0
1486726348.1939392, -61, 71, 7, 44, -18, -10, -9, -19, 0, 0
1486726348.1939783, -68, 60, 3, 66, -9, -14, -12, -19, 0, 0
1486726348.1940014, -68, 54, 25, 83, -14, -14, -7, -16, 0, 0
1486726348.194039, -64, 53, 34, 72, -12, -10, -12, -17, 0, 0
1486726348.1940577, -65, 60, 22, 96, -6, -10, -12, -10, 0, 0
1486726348.1940787, -53, 50, 22, 65, -9, -8, -15, -20, 0, 0
1486726348.1940975, -61, 61, 8, 60, -6, -12, -13, -16, 0, 0
1486726348.194116, -46, 28, -21, 70, -14, -19, -14, -18, 0, 0
1486726348.1941342, -49, 41, -21, 37, -22, -17, -16, -18, 0, 0
1486726348.194152, -52, 57, -12, 49, -16, -12, -11, -14, 0, 0
1486726348.1941707, 443, -124, -374, -125, -9, -11, -12, -16, 0, 0
1486726348.1941907, 429, -122, -345, -107, -12, -8, -15, -13, 0, 0
1486726348.194211, 429, -123, -339, -98, -9, -15, -12, -13, 0, 0
1486726348.1942315, 429, -113, -345, -99, -20, -15, -12, -12, 0, 0
1486726348.194252, 425, -110, -369, -105, -15, -11, -14, -22, 0, 0
1486726348.1942713, 426, -97, -368, -103, -10, -5, -10, -16, 0, 0
1486726348.1942892, 432, -108, -358, -103, -14, -6, -14, -16, 0, 0
1486726348.1946237, 422, -118, -334, -90, -10, -13, -12, -10, 0, 0
1486726348.1946604, 421, -113, -351, -94, -18, -12, -15, -18, 0, 0
1486726348.1946852, 412, -113, -368, -99, -11, -8, -18, -19, 0, 0
1486726348.194706, 404, -130, -359, -106, -11, 0, -10, -12, 0, 0
1486726348.1947255, 405, -121, -342, -84, -8, -6, -17, -22, 0, 0
1486726348.1947446, 411, -119, -341, -97, -21, -16, -11, -12, 0, 0
1486726348.194763, 383, -132, -338, -96, -9, -8, -10, -14, 0, 0
1486726348.1947808, 381, -129, -339, -88, -13, -6, -16, -15, 0, 0
1486726348.1947992, 388, -127, -346, -101, -18, -9, -6, -15, 0, 0
1486726348.1948173, 378, -122, -358, -90, -12, -15, -11, -14, 0, 0
1486726348.1948354, 380, -135, -374, -108, -13, -16, -14, -13, 0, 0
1486726348.1948538, 373, -146, -355, -93, -15, -9, -3, -14, 0, 0
1486726348.1948721, 382, -138, -334, -82, -10, -11, -12, -9, 0, 0
1486726348.1948903, 367, -126, -325, -74, -13, -12, -8, -14, 0, 0
1486726348.1949086, 368, -125, -347, -104, -8, -24, -12, -12, 0, 0
1486726348.1949265, 366, -133, -351, -74, -8, -19, -8, -11, 0, 0
1486726348.1949449, 372, -138, -343, -92, -4, -16, -9, -12, 0, 0
1486726348.194963, 361, -141, -329, -75, -10, -18, -13, -21, 0, 0
1486726348.194981, 368, -130, -331, -86, -15, -17, -8, -16, 0, 0
1486726348.1950035, 358, -129, -347, -106, -14, -17, -17, -15, 0, 0
1486726348.1950238, 362, -131, -358, -99, -9, -10, -8, -13, 0, 0
1486726348.1950424, 363, -133, -340, -101, -12, -10, -12, -8, 0, 0
1486726348.19506, 360, -129, -316, -89, -11, -14, -14, -13, 0, 0
1486726348.1953948, 357, -125, -324, -77, -11, -11, -9, -14, 0, 0
1486726348.195432, 358, -125, -352, -104, -9, -9, -12, -20, 0, 0
1486726348.1954565, 350, -136, -346, -94, -16, -19, -8, -11, 0, 0
1486726348.1954818, 360, -152, -332, -72, -10, -14, -15, -17, 0, 0
1486726348.1955056, 346, -157, -317, -78, -15, -18, -13, -14, 0, 0
1486726348.1955261, 346, -143, -328, -82, -19, -16, -9, -19, 0, 0
1486726348.195546, 351, -143, -343, -91, -8, -12, -11, -8, 0, 0
1486726348.1955647, 348, -147, -345, -85, -12, -9, -9, -15, 0, 0
1486726348.1955836, 359, -148, -327, -75, -5, -12, -12, -18, 0, 0
1486726348.195602, 351, -149, -314, -76, -16, -17, -8, -11, 0, 0
1486726348.19562, 353, -136, -337, -97, -18, -15, -13, -17, 0, 0
1486726348.1956382, 359, -125, -337, -90, -16, -9, -12, -20, 0, 0
1486726348.1956565, 360, -138, -346, -84, -8, -15, -13, -13, 0, 0
1486726348.1956747, 347, -144, -328, -77, -10, -16, -7, -10, 0, 0
1486726348.195693, 350, -143, -323, -68, -8, -8, -7, -16, 0, 0
1486726348.1957111, 358, -135, -342, -91, -13, -16, -15, -18, 0, 0
1486726348.1957293, 353, -138, -353, -105, -20, -18, -9, -21, 0, 0
1486726348.1957471, 352, -156, -349, -80, -5, -15, -17, -13, 0, 0
1486726348.1957684, 345, -149, -312, -63, -2, -9, -14, -9, 0, 0
1486726348.195789, 342, -143, -321, -89, -15, -18, -11, -15, 0, 0
1486726348.195808, 348, -138, -333, -94, -16, -13, -8, -6, 0, 0
1486726348.1958275, 340, -136, -340, -81, -11, -11, -10, -11, 0, 0
1486726348.1958494, 346, -147, -340, -75, -10, -12, -17, -1, 0, 0
1486726348.1958704, 333, -148, -319, -75, -9, -10, -13, -9, 0, 0
1486726348.1962104, 338, -153, -321, -89, -13, -10, -11, -14, 0, 0
1486726348.1962476, 332, -151, -341, -93, -22, -18, -12, -18, 0, 0
1486726348.196272, 340, -147, -350, -102, -19, -10, -5, -12, 0, 0
1486726348.1962926, 337, -149, -332, -92, -13, -8, -4, -15, 0, 0
1486726348.1963131, 335, -147, -316, -76, -4, -9, -9, -23, 0, 0
1486726348.196332, 334, -135, -310, -79, -11, -9, -8, -14, 0, 0
1486726348.1963508, 332, -132, -323, -90, -15, -6, -6, -17, 0, 0
1486726348.1963692, 338, -132, -337, -103, -22, -17, -16, -9, 0, 0
1486726348.1963875, 341, -146, -338, -104, -12, -13, -17, -1, 0, 0
1486726348.1964056, 344, -145, -330, -98, -17, -22, -18, -13, 0, 0
1486726348.1964242, 332, -148, -325, -100, -17, -21, -16, -15, 0, 0
1486726348.1964421, 325, -138, -339, -96, -9, -12, -11, -18, 0, 0
1486726348.1964605, 341, -137, -333, -100, -19, -18, -12, -15, 0, 0
1486726348.1964786, 338, -141, -310, -75, -9, -16, -14, -16, 0, 0
1486726348.1964967, 330, -147, -305, -90, -21, -18, -9, -20, 0, 0
1486726348.196515, 334, -135, -310, -79, -11, -9, -8, -14, 0, 0
1486726348.196533, 329, -139, -332, -94, -17, -13, -14, -13, 0, 0
1486726348.196551, 332, -135, -341, -103, -15, -16, -16, -20, 0, 0
1486726348.196572, 327, -141, -338, -104, -12, -13, -13, -12, 0, 0
1486726348.1965928, 332, -148, -314, -74, -17, -14, -3, -9, 0, 0
1486726348.196614, 333, -137, -322, -89, -18, -12, -7, -10, 0, 0
1486726348.196633, 334, -137, -339, -96, -9, -12, -11, -7, 0, 0
1486726348.196651, 329, -131, -334, -102, -8, -17, -18, -16, 0, 0
1486726348.196987, 330, -142, -322, -82, -8, -9, -10, -15, 0, 0
1486726348.1970236, 325, -149, -311, -90, -21, -18, -9, -20, 0, 0
1486726348.1970484, 321, -149, -318, -97, -22, -13, -14, -23, 0, 0
1486726348.1970692, 319, -144, -336, -98, -25, -17, -6, -6, 0, 0
1486726348.1970887, 324, -146, -333, -83, -11, -10, -16, -20, 0, 0
1486726348.1971128, 327, -148, -313, -72, -8, -9, -14, -23, 0, 0
1486726348.1971345, 315, -141, -289, -72, -8, -16, -10, -8, 0, 0
1486726348.1971545, 313, -128, -299, -70, -8, -13, -11, -10, 0, 0
1486726348.1972, 307, -128, -318, -88, -21, -22, -20, -16, 0, 0
1486726348.1972194, 311, -132, -320, -72, -10, -11, -18, -13, 0, 0
1486726348.197238, 305, -140, -301, -66, -12, -14, -21, -15, 0, 0
1486726348.1972566, 300, -135, -299, -60, -9, -10, -11, -17, 0, 0
1486726348.1972747, 318, -131, -322, -77, -18, -15, -16, -10, 0, 0
1486726348.1972928, 314, -132, -330, -81, -13, -12, -16, -16, 0, 0
1486726348.1973107, 318, -135, -328, -84, -11, -12, -9, -11, 0, 0
1486726348.1973298, 318, -141, -313, -66, -7, -9, -9, -13, 0, 0
1486726348.1973479, 309, -134, -303, -69, -12, -17, -11, -12, 0, 0
1486726348.197366, 307, -121, -310, -72, -9, -17, -15, -23, 0, 0
1486726348.1973839, 313, -121, -320, -92, -16, -8, -13, -17, 0, 0
1486726348.1974018, 311, -135, -314, -63, -4, -11, -18, -13, 0, 0
1486726348.1974232, 310, -143, -293, -56, -14, -15, -13, -16, 0, 0
1486726348.197442, 294, -144, -294, -62, -14, -12, -5, -14, 0, 0
1486726348.19746, 307, -138, -311, -80, -15, -16, -5, -10, 0, 0
1486726348.1978028, 297, -150, -329, -88, -9, -10, -9, -10, 0, 0
1486726348.1978395, 299, -152, -306, -57, -2, -3, -11, -15, 0, 0
1486726348.1978645, 293, -140, -281, -40, -10, -10, -14, -13, 0, 0
1486726348.1978855, 303, -143, -300, -70, -11, -13, -15, -13, 0, 0
1486726348.1979098, 287, -133, -308, -58, -10, -9, -10, -17, 0, 0
1486726348.1979296, 299, -130, -324, -81, -13, -13, -13, -10, 0, 0
1486726348.1979518, 297, -142, -311, -70, -9, -12, -12, -7, 0, 0
1486726348.1979718, 298, -136, -283, -40, -19, -15, -16, -8, 0, 0
1486726348.1979911, 291, -129, -289, -68, -18, -16, -5, -14, 0, 0
1486726348.1980102, 294, -131, -305, -86, -17, -14, -10, -15, 0, 0
1486726348.1980283, 291, -135, -313, -74, -15, -14, -21, -19, 0, 0
1486726348.1980464, 291, -146, -297, -56, -6, -16, -21, -16, 0, 0
1486726348.1980655, 301, -141, -296, -66, -9, -14, -13, -16, 0, 0
1486726348.1980836, 299, -135, -313, -88, -29, -20, -2, -11, 0, 0
1486726348.1981018, 310, -134, -341, -96, -16, -14, -9, -15, 0, 0
1486726348.1981199, 291, -139, -301, -64, -13, -11, -11, -5, 0, 0
1486726348.198138, 252, -136, -256, -35, -8, -9, -17, -17, 0, 0
1486726348.198156, 233, -116, -225, -32, -10, -10, -18, -18, 0, 0
1486726348.198174, 221, -97, -223, -33, -18, -12, -12, -16, 0, 0
1486726348.198192, 206, -88, -236, -39, -9, -15, -15, -13, 0, 0
1486726348.1982098, 181, -88, -222, -31, -8, -19, -11, -7, 0, 0
1486726348.1982276, 149, -97, -189, -17, -7, -12, -12, -11, 0, 0
1486726348.1982453, 137, -90, -171, -17, -12, -15, -11, -15, 0, 0
1486726348.198582, 111, -86, -181, -36, -20, -20, -2, -11, 0, 0
1486726348.1986184, 94, -85, 27203, 14917, 23024, -23040, 16895, -6913, 0, 0
1486726348.1986427, 63, -87, -146, -25, -9, -15, -10, -25, 0, 0
1486726348.198664, 52, -88, -135, -25, -13, -17, -13, -15, 0, 0
1486726348.1986835, 45, -95, -139, -19, -8, -7, -5, -21, 0, 0
1486726348.198734, 43, -86, -159, -30, -19, -19, -11, -11, 0, 0
1486726348.1987545, 206, -88, -236, -39, -9, -15, -15, -13, 0, 0
1486726348.1987739, 47, -99, -139, -1, -7, -6, -6, -12, 0, 0
1486726348.1987932, 46, -95, -134, -14, -8, -17, -13, -22, 0, 0
1486726348.1988122, 49, -84, -156, -32, -20, -15, -1, -16, 0, 0
1486726348.1988344, 54, -80, -168, -42, -16, -17, -17, -8, 0, 0
1486726348.1988554, 57, -85, -161, -31, -12, -13, -11, -14, 0, 0
1486726348.1988766, 54, -87, -146, -25, -9, -15, -10, -25, 0, 0
1486726348.1988957, 49, -84, -141, -3, -10, -6, -10, -18, 0, 0
1486726348.198914, 42, -84, -152, -30, -15, -10, -9, -15, 0, 0
1486726348.1989324, 42, -90, -163, -30, -19, -19, -11, -11, 0, 0
1486726348.1989508, 40, -94, -148, -10, -12, -13, -12, -10, 0, 0
1486726348.1989691, 33, -105, -131, -17, -2, -10, -13, -15, 0, 0
1486726348.1989877, 36, -97, -141, -11, -16, -17, -13, -22, 0, 0
1486726348.1990058, 42, -85, -148, -39, -16, -20, -16, -12, 0, 0
1486726348.199024, 45, -87, -167, -41, -12, -10, -6, -11, 0, 0
1486726348.1990662, 39, -103, -160, -23, -9, -9, -11, -14, 0, 0
1486726348.1990874, 43, -95, -128, -4, -10, -12, -11, -15, 0, 0
1486726348.1991057, 42, -85, -130, -10, -19, -15, -7, -10, 0, 0
1486726348.1994727, 41, -86, -155, -36, -16, -14, -17, -15, 0, 0
1486726348.1995096, 45, -91, -162, -11, -9, -11, -4, -10, 0, 0
1486726348.1995335, 40, -105, -145, -22, -9, -9, -8, -16, 0, 0
1486726348.1995542, 42, -98, -134, -4, -13, -12, -17, -16, 0, 0
1486726348.199574, 34, -90, -138, -23, -17, -14, -10, -14, 0, 0
1486726348.199593, 33, -91, -156, -7, -12, -17, -13, -13, 0, 0
1486726348.199612, 25, -95, -160, -23, -14, -12, -15, -19, 0, 0
1486726348.1996305, 38, -106, -145, -22, -9, -11, -10, -13, 0, 0
1486726348.1996493, 29, -103, -117, 2, -12, -20, -23, -17, 0, 0
1486726348.1996677, 31, -90, -119, -14, -10, -15, -7, -10, 0, 0
1486726348.1996863, 33, -82, -144, -19, -17, -9, -3, -8, 0, 0
1486726348.1997051, 33, -85, -162, -41, -21, -16, -21, -9, 0, 0
1486726348.1997242, 42, -95, -145, 2, -6, -7, -8, -16, 0, 0
1486726348.1997483, 26, -97, -117, -3, -20, -13, -6, -2, 0, 0
1486726348.1997676, 4, -83, -101, -7, -17, -2, -10, -11, 0, 0
1486726348.199786, -8, -78, -120, -11, -16, -11, -16, -10, 0, 0
1486726348.199804, -21, -81, -112, -11, -8, -9, -8, -11, 0, 0
1486726348.1998224, -19, -76, -82, 20, -13, -10, -10, -14, 0, 0
1486726348.199845, -39, -71, -62, 24, -16, -7, -12, -15, 0, 0
1486726348.1998644, -40, -55, -72, 2, -23, -15, -11, -14, 0, 0
1486726348.1998827, -44, -58, -98, 1, -18, -14, -14, -13, 0, 0
1486726348.1999006, -29, -53, -94, 11, -17, -8, -9, -7, 0, 0
1486726348.1999185, -32, -61, -76, 33, -15, -10, -13, -13, 0, 0
1486726348.2002828, -32, -59, -70, 12, -15, -11, -15, -11, 0, 0
1486726348.2003295, -30, -49, -105, 3, -13, -10, -10, -11, 0, 0
1486726348.2003539, -22, -46, -110, -8, -19, -7, -18, -10, 0, 0
1486726348.2003748, -31, -51, -97, 0, -14, -12, -14, -13, 0, 0
1486726348.2003949, -34, -53, -76, 32, -5, -6, -13, -14, 0, 0
1486726348.2004137, -38, -52, -72, 25, -12, -8, -12, -15, 0, 0
1486726348.2004328, -33, -42, -84, 11, -19, -9, -8, -13, 0, 0
1486726348.2004516, -33, -36, -87, 21, -11, -9, -7, -5, 0, 0
1486726348.2004735, -34, -39, -83, 5, -14, -6, -2, -3, 0, 0
1486726348.2004936, -29, -50, -69, 34, -14, -5, -2, -3, 0, 0
1486726348.200513, -37, -43, -66, 20, -10, -9, -7, -15, 0, 0
1486726348.2005315, -33, -35, -93, 15, -17, -15, -10, -13, 0, 0
1486726348.2005498, -34, -46, -105, 6, -12, -14, -7, -7, 0, 0
1486726348.2005699, -27, -44, -88, 30, -11, -10, -16, -2, 0, 0
1486726348.2005894, -37, -53, -76, 32, -5, -6, -13, -13, 0, 0
1486726348.200625, -42, -38, -61, 33, -13, -11, -7, -6, 0, 0
1486726348.200644, -40, -43, -87, 7, -15, -16, -10, -13, 0, 0
1486726348.200663, -33, -34, -87, 20, -7, -10, -13, -8, 0, 0
1486726348.2006812, -36, -35, -78, 29, -17, -15, -11, -5, 0, 0
1486726348.200702, -37, -38, -58, 40, -17, -8, -7, -10, 0, 0
1486726348.2007213, -39, -29, -61, 20, -22, -12, -8, -9, 0, 0
1486726348.2007394, -40, -28, -79, 10, -30, -15, -10, -14, 0, 0
1486726348.2007573, -36, -28, -80, 27, -17, -11, -8, -9, 0, 0
1486726348.2010098, -32, -44, -88, 30, -11, -10, -16, -2, 0, 0
1486726348.2010467, -35, -35, -58, 25, -20, -7, -13, -14, 0, 0
1486726348.2010703, -37, -21, -61, 15, -16, -14, -16, -22, 0, 0
1486726348.2010913, -30, -17, -91, 12, -15, -16, -10, -13, 0, 0
1486726348.2011108, -36, -9, -74, 8, -13, -9, -13, -18, 0, 0
1486726348.201135, -34, -8, -53, 27, -14, -7, -15, -14, 0, 0
1486726348.2011545, -32, -18, -54, 15, -17, -7, -7, -10, 0, 0
1486726348.201173, -35, -13, -62, 31, -23, -3, -5, -10, 0, 0
1486726348.2011914, -30, -10, -80, 14, -11, -7, -11, -7, 0, 0
1486726348.2012093, -31, -19, -79, 27, -17, -11, -8, -9, 0, 0
1486726348.2012277, -44, -29, -62, 35, -7, -11, -12, -14, 0, 0
1486726348.2012463, -36, -26, -55, 49, -10, -13, -13, -20, 0, 0
1486726348.2012644, -33, -28, -74, 33, -17, -12, -16, -22, 0, 0
1486726348.2012823, -40, -20, -86, 31, -16, -15, -14, -9, 0, 0
1486726348.2013, -39, -22, -81, 8, -9, -10, -13, -8, 0, 0
1486726348.201318, -32, -19, -56, 20, -12, -7, -16, -14, 0, 0
1486726348.2013385, -36, -27, -58, 39, -14, -15, -10, -10, 0, 0
1486726348.2013593, -34, -20, -68, 25, -16, -16, -16, -4, 0, 0
1486726348.201378, -37, -14, -77, 16, -15, -15, -17, -11, 0, 0
1486726348.201396, -35, -18, -78, 24, -26, -21, -15, -16, 0, 0
1486726348.2014139, -40, -15, -51, 30, -5, -12, -24, -15, 0, 0
1486726348.2039754, -36, -19, -52, 22, -13, -10, -12, -12, 0, 0
1486726348.2040274, -39, -8, -63, 31, -15, -17, -15, -17, 0, 0
1486726348.2040682, -35, -7, -70, 14, -13, -10, -17, -12, 0, 0
1486726348.2040894, -41, -15, -54, 18, -15, -14, -13, -8, 0, 0
1486726348.204109, -44, -26, -46, 41, -13, -16, -14, -15, 0, 0
1486726348.2041285, -39, -26, -50, 40, -20, -18, -11, -14, 0, 0
1486726348.204147, -48, -21, -55, 27, -21, -20, -16, -4, 0, 0
1486726348.204166, -39, -24, -80, 4, -15, -7, -8, -6, 0, 0
1486726348.2041843, -36, -26, -67, 15, -12, -17, -15, -19, 0, 0
1486726348.2042027, -40, -28, -45, 34, -19, -15, -24, -15, 0, 0
1486726348.2042215, -41, -23, -45, 28, -22, -17, -10, -16, 0, 0
1486726348.2042398, -43, -24, -68, 21, -18, -13, -16, -10, 0, 0
1486726348.204258, -41, -20, -76, 6, -14, -12, -15, -11, 0, 0
1486726348.204276, -35, -38, -63, 26, -15, -13, -11, -6, 0, 0
1486726348.2042942, -43, -34, -39, 37, -17, -10, -13, -16, 0, 0
1486726348.204312, -46, -28, -56, 16, -15, -18, -11, -14, 0, 0
1486726348.2043302, -42, -25, -80, 16, -18, -19, -13, -16, 0, 0
1486726348.204348, -41, -26, -83, 2, -7, -11, -13, -17, 0, 0
1486726348.2043667, -43, -29, -61, 21, -15, -15, -15, -19, 0, 0
1486726348.204389, -42, -36, -56, 24, -16, -11, -9, -19, 0, 0
1486726348.2044091, -43, -33, -59, 28, -13, -13, -17, -16, 0, 0
1486726348.2044272, -43, -28, -80, 10, -13, -10, -5, -10, 0, 0
1486726348.20447, -41, -27, -80, 4, -12, -9, -11, -16, 0, 0
1486726348.204774, -38, -24, -60, 45, -12, -11, -13, -14, 0, 0
1486726348.2048104, -46, -26, -46, 46, -10, -9, -8, -14, 0, 0
1486726348.2048347, -33, -24, -56, 40, -18, -13, -11, -18, 0, 0
1486726348.204856, -36, -21, -76, 27, -15, -11, -16, -10, 0, 0
1486726348.2048752, -34, -19, -76, 34, -10, -8, -15, -14, 0, 0
1486726348.2048943, -34, -26, -63, 37, -8, -11, -16, -16, 0, 0
1486726348.204913, -42, -24, -44, 27, -14, -16, -18, -11, 0, 0
1486726348.2049313, -39, -16, -56, 41, -18, -15, -23, -22, 0, 0
1486726348.2049496, -43, -28, -80, 10, -13, -10, -5, -24, 0, 0
1486726348.2049677, -45, -14, -57, 24, -10, -10, -15, -13, 0, 0
1486726348.2049859, -44, -20, -44, 62, -7, -13, -22, -19, 0, 0
1486726348.205004, -41, -22, -46, 46, -10, -9, -8, -14, 0, 0
1486726348.2050226, -46, -21, -50, 25, -10, -19, -13, -12, 0, 0
1486726348.2050462, -38, -13, -65, 26, -16, -13, -7, -17, 0, 0
1486726348.2050686, -43, -21, -58, 19, -13, -11, -11, -10, 0, 0
1486726348.205088, -37, -25, -54, 38, -7, -9, -3, -8, 0, 0
1486726348.2051067, -34, -32, -47, 44, -13, -12, -5, -8, 0, 0
1486726348.205125, -39, -16, -56, 41, -18, -15, -23, -22, 0, 0
1486726348.2051444, -85, 17, -24, 38, -19, -14, -7, -12, 0, 0
1486726348.205165, -91, 32, -11, 60, -18, -10, -18, -8, 0, 0
1486726348.2051837, -112, 39, -231, 62, -7, -13, -22, -19, 0, 0
1486726348.2052019, -131, 50, 43, 78, -16, -11, -10, -14, 0, 0
1486726348.2052221, -147, 67, 31, 64, -12, -16, -15, -20, 0, 0
1486726348.2055242, -158, 75, 26, 80, -16, -13, -7, -17, 0, 0
1486726348.2055745, -172, 87, 51, 85, -5, -12, -15, -11, 0, 0
1486726348.205599, -200, 106, 93, 112, -7, -10, -8, -12, 0, 0
1486726348.2056203, -208, 126, 103, 112, -12, -7, -6, -8, 0, 0
1486726348.2056396, -212, 141, 94, 103, -17, -18, -13, -15, 0, 0
1486726348.2056584, -227, 159, 109, 107, -19, -13, -10, -6, 0, 0
1486726348.205677, -243, 167, 131, 130, -3, -12, -16, -23, 0, 0
1486726348.2056954, -244, 183, 163, 157, -10, -12, -11, -14, 0, 0
1486726348.205714, -252, 203, 172, 158, -17, -10, -11, -15, 0, 0
1486726348.205732, -243, 230, 151, 166, -14, -15, -12, -11, 0, 0
1486726348.20575, -244, 251, 150, 156, -26, -25, -12, -13, 0, 0
1486726348.205768, -234, 256, 156, 168, -7, -7, -14, -9, 0, 0
1486726348.2057967, -235, 267, 176, 196, -10, -9, -14, -9, 0, 0
1486726348.2058153, -238, 290, 186, 184, -9, -17, -15, -7, 0, 0
1486726348.2058337, -234, 302, 160, 169, -18, -18, -18, -6, 0, 0
1486726348.2058516, -227, 309, 161, 187, -9, -5, -16, -10, 0, 0
1486726348.2058702, -224, 306, 161, 192, -13, -5, -14, -4, 0, 0
1486726348.2058883, -234, 295, 176, 202, -14, -12, -19, -14, 0, 0
1486726348.2059085, -233, 301, 168, 178, -23, -10, -10, -2, 0, 0
1486726348.2059278, -218, 314, 150, 162, -23, -15, -11, -5, 0, 0
1486726348.2059474, -212, 318, 147, 181, -13, -7, -13, -9, 0, 0
1486726348.2059677, -216, 300, 150, 195, -10, -13, -19, -9, 0, 0
1486726348.205986, -212, 301, 166, 205, -5, -12, -20, -16, 0, 0
1486726348.206006, -215, 305, 162, 215, -17, -16, -11, -15, 0, 0
1486726348.2063403, -213, 313, 143, 186, -8, -3, -13, -12, 0, 0
1486726348.2063913, -213, 304, 142, 190, -6, -6, -14, -14, 0, 0
1486726348.2064161, -215, 298, 154, 189, -8, -7, -21, -20, 0, 0
1486726348.2064366, -214, 296, 160, 201, -19, -7, -16, -17, 0, 0
1486726348.206456, -215, 302, 150, 181, -10, -7, -12, -17, 0, 0
1486726348.2064753, -214, 314, 128, 186, -15, -12, -14, -10, 0, 0
1486726348.206494, -199, 304, 123, 172, -18, -11, -13, -9, 0, 0
1486726348.206513, -211, 301, 151, 207, -8, -12, -16, -11, 0, 0
1486726348.2065318, -213, 303, 171, 208, -17, -10, -8, -18, 0, 0
1486726348.2065506, -212, 313, 166, 189, -9, -14, -11, -15, 0, 0
1486726348.206569, -206, 315, 150, 200, -12, -15, -17, -11, 0, 0
1486726348.2065878, -206, 309, 150, 194, -10, -11, -21, -20, 0, 0
1486726348.2066064, -212, 303, 158, 202, -8, -4, -10, -20, 0, 0
1486726348.2066247, -211, 311, 170, 200, -18, -19, -18, -15, 0, 0
1486726348.2066429, -209, 321, 155, 202, -13, -12, -17, -10, 0, 0
1486726348.2066615, -208, 321, 142, 198, -15, -10, -7, -12, 0, 0
1486726348.2066793, -213, 308, 153, 211, -9, -11, -11, -17, 0, 0
1486726348.2066977, -203, 307, 176, 212, -9, -9, -15, -16, 0, 0
1486726348.2067158, -208, 313, 184, 206, -12, -4, -8, -18, 0, 0
1486726348.2067342, -213, 307, 169, 190, -18, -9, -15, -20, 0, 0
1486726348.2067523, -206, 302, 149, 192, -13, -8, -16, -21, 0, 0
1486726348.2067702, -208, 298, 159, 214, -8, -9, -21, -20, 0, 0
1486726348.2068193, -213, 299, 180, 216, -12, -7, -11, -17, 0, 0
1486726348.2071116, -210, 301, 183, 214, -11, -9, -11, -13, 0, 0
1486726348.2086697, -232, -53, 201, 134, -11, -14, -11, -24, 0, 0
1486726348.2091136, -233, -44, 191, 132, -19, -18, -15, -15, 0, 0
1486726348.2098732, -231, -38, 169, 105, -16, -13, -10, -18, 0, 0
1486726348.2197218, -232, -56, 165, 106, -9, -15, -18, -18, 0, 0
1486726348.2232826, -229, -56, 183, 126, -7, -15, -10, -11, 0, 0
1486726348.2254674, -232, -57, 197, 138, -17, -12, -1, -9, 0, 0
1486726348.2318988, -233, -54, 186, 107, -21, -25, -16, -24, 0, 0
1486726348.2319715, -220, -36, 174, 116, -15, -15, -12, -12, 0, 0
1486726348.236469, -228, -40, 172, 114, -17, -17, -23, -23, 0, 0
1486726348.2458868, -226, -48, 190, 143, -9, -13, -10, -20, 0, 0
1486726348.2468786, -230, -50, 202, 119, -15, -9, -6, -16, 0, 0
1486726348.247974, -227, -43, 181, 127, -16, -18, -15, -15, 0, 0
1486726348.2533708, -224, -42, 168, 123, -13, -13, -4, -19, 0, 0
1486726348.2544172, -230, -45, 176, 136, -14, -14, -9, -16, 0, 0
1486726348.259126, -224, -43, 196, 142, -9, -9, -10, -11, 0, 0
1486726348.2684467, -231, -45, 199, 110, -17, -14, -10, -14, 0, 0
1486726348.2693737, -233, -45, 176, 111, -17, -15, -4, -23, 0, 0
1486726348.2752414, -216, -48, 160, 103, -14, -14, -12, -23, 0, 0
1486726348.2833848, -225, -51, 170, 119, -5, -8, -9, -13, 0, 0
1486726348.2841084, -219, -63, 185, 128, -19, -13, -6, -15, 0, 0
1486726348.2855687, -213, -56, 183, 120, -19, -16, -17, -19, 0, 0
1486726348.291787, -214, -41, 163, 95, -11, -14, -18, -17, 0, 0
1486726348.291863, -218, -37, 158, 106, -7, -15, -7, -9, 0, 0
1486726348.296594, -212, -44, 173, 126, -8, -14, -13, -13, 0, 0
1486726348.3059897, -211, -44, 197, 148, -6, -12, -7, -11, 0, 0
1486726348.3068495, -216, -43, 193, 122, -13, -11, -7, -15, 0, 0
1486726348.3075798, -215, -39, 169, 111, -19, -15, -4, -23, 0, 0
1486726348.3208597, -210, -53, 158, 104, -19, -16, -15, -19, 0, 0
1486726348.3219116, -216, -50, 171, 125, -9, -12, -8, -17, 0, 0
1486726348.3230283, -215, -57, 180, 126, -10, -13, -6, -15, 0, 0
1486726348.3283286, -209, -49, 181, 113, -17, -9, -8, -16, 0, 0
1486726348.329402, -211, -41, 168, 122, -9, -15, -11, -21, 0, 0
1486726348.3298798, -212, -40, 169, 130, -7, -15, -7, -9, 0, 0
1486726348.3432677, -209, -48, 180, 129, -8, -14, -14, -19, 0, 0
1486726348.3444, -207, -46, 185, 124, -13, -14, -18, -6, 0, 0
1486726348.3460464, -207, -37, 180, 117, -20, -17, -7, -9, 0, 0
1486726348.3584135, -204, -40, 151, 95, -15, -17, -9, -18, 0, 0
1486726348.3593621, -201, -38, 151, 103, -8, -21, -8, -12, 0, 0
1486726348.362839, -210, -49, 161, 124, -5, -12, -8, -17, 0, 0
1486726348.3659112, -211, -51, 180, 111, -19, -14, -5, -14, 0, 0
1486726348.3668501, -212, -45, 177, 105, -18, -17, -8, -15, 0, 0
1486726348.3694797, -207, -38, 158, 108, -18, -19, -16, -21, 0, 0
1486726348.3810565, -204, -39, 158, 119, -16, -19, -10, -17, 0, 0
1486726348.3815548, -206, -46, 176, 122, -16, -10, -11, -18, 0, 0
1486726348.384609, -207, -45, 175, 133, -11, -24, -15, -13, 0, 0
1486726348.3958378, -209, -42, 167, 118, -18, -24, -17, -14, 0, 0
1486726348.3967376, -203, -41, 147, 113, -17, -23, -8, -12, 0, 0
1486726348.3997746, -206, -49, 158, 107, -20, -13, -13, -12, 0, 0
1486726348.4033387, -194, -44, 174, 124, -12, -14, -12, -15, 0, 0
1486726348.404154, -206, -41, 182, 117, -17, -12, -11, -12, 0, 0
1486726348.4047213, -198, -40, 172, 103, -20, -11, -14, -20, 0, 0
1486726348.4052658, -210, -38, 146, 108, -18, -19, -16, -14, 0, 0
1486726348.4184651, -205, -45, 154, 113, -13, -9, -13, -12, 0, 0
1486726348.4190862, -204, -44, 174, 132, -12, -14, -6, -8, 0, 0
1486726348.4221098, -205, -45, 176, 133, -11, -24, -15, -13, 0, 0
1486726348.4333494, -207, -41, 151, 114, -14, -17, -8, -14, 0, 0
1486726348.4342778, -202, -35, 146, 113, -14, -22, -25, -14, 0, 0
1486726348.435056, -197, -36, 151, 124, -10, -12, -13, -12, 0, 0
1486726348.4408348, -202, -42, 178, 135, -14, -8, -15, -13, 0, 0
1486726348.4417694, -206, -38, 172, 111, -14, -15, -13, -13, 0, 0
1486726348.4430974, -199, -37, 172, 103, -20, -11, -14, -20, 0, 0
1486726348.4557, -206, -44, 143, 94, -16, -8, -15, -23, 0, 0
1486726348.4568164, -200, -42, 159, 129, -10, -18, -15, -13, 0, 0
1486726348.4591107, -199, -44, 166, 123, -12, -14, -6, -8, 0, 0
1486726348.4707882, -192, -43, 161, 109, -15, -14, -10, -11, 0, 0
1486726348.4718583, -204, -43, 146, 88, -17, -16, -17, -19, 0, 0
1486726348.473544, -195, -38, 141, 105, -12, -22, -25, -14, 0, 0
1486726348.4783325, -193, -37, 160, 118, -15, -14, -9, -13, 0, 0
1486726348.4786952, -198, -43, 183, 126, -20, -16, -1, -9, 0, 0
1486726348.4799762, -199, -44, 173, 105, -23, -16, -7, -13, 0, 0
1486726348.49328, -201, -42, 145, 79, -24, -16, -5, -8, 0, 0
1486726348.4942074, -191, -42, 147, 108, -8, -10, -14, -8, 0, 0
1486726348.4948635, -200, -47, 167, 123, -14, -18, -13, -9, 0, 0
1486726348.5082872, -199, -41, 184, 110, -20, -13, -5, -1, 0, 0
1486726348.5093064, -196, -36, 179, 99, -20, -15, -15, -11, 0, 0
1486726348.5112877, -194, -40, 146, 84, -16, -16, -17, -19, 0, 0
1486726348.5157092, -191, -41, 140, 105, -14, -9, -8, -17, 0, 0
1486726348.516842, -185, -38, 158, 100, -11, -15, -15, -18, 0, 0
1486726348.5188656, -195, -43, 160, 107, -11, -16, -1, -9, 0, 0
1486726348.5307508, -196, -47, 149, 96, -15, -11, -2, -14, 0, 0
1486726348.5317814, -193, -40, 136, 100, -9, -14, -2, -14, 0, 0
1486726348.532835, -192, -40, 138, 91, -14, -13, -9, -8, 0, 0
1486726348.5457404, -201, -52, 157, 116, -1, -5, -6, -17, 0, 0
1486726348.5467827, -191, -53, 163, 116, -7, -4, -11, -17, 0, 0
1486726348.5495155, -192, -45, 157, 82, -16, -2, -9, -14, 0, 0
1486726348.5533967, -183, -44, 136, 82, -19, -12, -9, -18, 0, 0
1486726348.5540466, -187, -52, 130, 100, -17, -16, -11, -17, 0, 0
1486726348.555319, -184, -56, 154, 120, -13, -8, -14, -17, 0, 0
1486726348.5683422, -184, -55, 158, 114, -12, -15, -8, -21, 0, 0
1486726348.5693524, -184, -47, 148, 100, -24, -14, -4, -15, 0, 0
1486726348.5711112, -183, -48, 136, 99, -21, -14, -2, -14, 0, 0
1486726348.583246, -188, -49, 141, 93, -17, -12, -10, -17, 0, 0
1486726348.5839093, -182, -47, 161, 119, -17, -13, -8, -21, 0, 0
1486726348.5875413, -189, -52, 156, 102, -17, -11, -11, -17, 0, 0
1486726348.5914197, -183, -45, 144, 107, -15, -12, -10, -13, 0, 0
1486726348.5921595, -185, -46, 131, 90, -22, -13, -10, -17, 0, 0
1486726348.5922017, -182, -57, 119, 98, -14, -9, -11, -17, 0, 0
1486726348.6056933, -171, -63, 131, 101, 1, -2, -7, -18, 0, 0
1486726348.606057, -184, -56, 148, 109, -11, -12, -17, -12, 0, 0
1486726348.6073008, -175, -42, 133, 82, -12, -8, -6, -13, 0, 0
1486726348.6208549, -172, -39, 122, 103, -16, -8, -6, -10, 0, 0
1486726348.6216478, -174, -49, 129, 94, -10, -15, -10, -14, 0, 0
1486726348.6219132, -174, -53, 154, 124, -11, -8, -9, -10, 0, 0
1486726348.6282358, -181, -47, 152, 109, -17, -18, -13, -6, 0, 0
1486726348.629096, -171, -43, 132, 77, -17, -14, -3, -8, 0, 0
1486726348.6295629, -176, -47, 124, 88, -17, -11, -7, -7, 0, 0
1486726348.630663, -182, -57, 119, 98, -14, -9, -12, -10, 0, 0
1486726348.6432333, -176, -52, 147, 104, -15, -14, -9, -5, 0, 0
1486726348.6442015, -177, -48, 147, 104, -13, -10, -12, -9, 0, 0
1486726348.6465683, -173, -42, 133, 82, -12, -8, -6, -13, 0, 0
1486726348.658179, -167, -42, 119, 80, -11, -12, -6, -8, 0, 0
1486726348.6592107, -172, -54, 126, 90, -12, -13, -7, -4, 0, 0
1486726348.6613543, -175, -52, 152, 124, -11, -8, -9, -10, 0, 0
1486726348.6658537, -175, -52, 142, 103, -13, -7, -8, -22, 0, 0
1486726348.667591, -171, -47, 121, 76, -22, -7, -17, -14, 0, 0
1486726348.6806877, -170, -51, 112, 99, -8, -15, -14, -16, 0, 0
1486726348.68156, -168, -55, 125, 109, -12, -20, -15, -10, 0, 0
1486726348.6820567, -167, -50, 143, 104, -7, -10, -11, -16, 0, 0
1486726348.683125, -166, -48, 147, 104, -13, -10, -12, -9, 0, 0
1486726348.695713, -168, -42, 113, 87, -16, -12, -8, -14, 0, 0
1486726348.696123, -171, -39, 119, 95, -14, -16, -12, -12, 0, 0
1486726348.6995242, -167, -54, 134, 119, -12, -13, -7, -4, 0, 0
1486726348.7032893, -173, -57, 145, 119, -13, -19, -7, -10, 0, 0
1486726348.7042105, -168, -55, 127, 93, -15, -11, -9, -16, 0, 0
1486726348.704621, -169, -52, 94, 86, -22, -7, -17, -14, 0, 0
1486726348.7181582, -161, -54, 94, 78, -17, -9, -6, -16, 0, 0
1486726348.7188783, -166, -62, 126, 97, -9, -9, -13, -13, 0, 0
1486726348.7192378, -173, -65, 143, 109, -7, -10, -11, -16, 0, 0
1486726348.7331991, -166, -56, 133, 79, -18, -12, -6, -18, 0, 0
1486726348.734162, -159, -48, 112, 66, -15, -1, -9, -5, 0, 0
1486726348.7353148, -163, -58, 116, 98, -13, -14, -13, -12, 0, 0
1486726348.7405689, -166, -59, 122, 109, -10, -11, -8, -13, 0, 0
1486726348.741633, -166, -62, 124, 88, -16, -19, -14, -11, 0, 0
1486726348.7425914, -167, -64, 108, 87, -16, -11, -9, -12, 0, 0
1486726348.7556708, -163, -59, 106, 62, -17, -19, -12, -16, 0, 0
1486726348.7566812, -162, -50, 110, 88, -10, -10, -7, -2, 0, 0
1486726348.757202, -161, -63, 116, 92, -14, -11, -7, -15, 0, 0
1486726348.7706137, -159, -57, 129, 89, -13, -9, -12, -13, 0, 0
1486726348.77232, -160, -47, 127, 98, -12, -9, -14, -14, 0, 0
1486726348.778759, -166, -45, 108, 87, -15, -1, -9, -5, 0, 0
1486726348.779247, -160, -50, 114, 107, -3, -4, -6, -15, 0, 0
1486726348.779308, -164, -62, 135, 101, -15, -9, -10, -16, 0, 0
1486726348.7803478, -169, -64, 136, 97, -14, -19, -14, -11, 0, 0
1486726348.794134, -168, -56, 118, 76, -14, -14, -2, -12, 0, 0
1486726348.7971394, -161, -57, 109, 91, -20, -18, -14, -12, 0, 0
1486726348.7972112, -159, -55, 126, 93, -7, -13, -15, -6, 0, 0
1486726348.8081143, -164, -58, 143, 113, -14, -10, -7, -10, 0, 0
1486726348.8088145, -168, -52, 134, 108, -15, -11, -13, -16, 0, 0
1486726348.80965, -167, -46, 120, 86, -16, -9, -4, -7, 0, 0
1486726348.817103, -170, -49, 107, 81, -17, -19, -6, -10, 0, 0
1486726348.81719, -163, -52, 113, 94, -13, -10, -4, -12, 0, 0
1486726348.8172185, -169, -54, 131, 104, -12, -11, -16, -10, 0, 0
1486726348.830912, -166, -55, 133, 87, -19, -11, -11, -18, 0, 0
1486726348.8309815, -163, -50, 111, 74, -23, -16, -21, -14, 0, 0
1486726348.8326826, -164, -56, 103, 89, -22, -18, -14, -12, 0, 0
1486726348.8456042, -164, -55, 127, 91, -20, -17, -8, -18, 0, 0
1486726348.8465426, -160, -68, 140, 112, -15, -11, -4, -9, 0, 0
1486726348.8521175, -158, -58, 133, 98, -9, -9, -11, -16, 0, 0
1486726348.8532946, -163, -48, 111, 73, -20, -13, -12, -11, 0, 0
1486726348.8535495, -161, -53, 106, 78, -21, -12, -5, -5, 0, 0
1486726348.8542504, -158, -50, 125, 103, -13, -14, -13, -4, 0, 0
1486726348.868146, -162, -57, 131, 91, -12, -9, -13, -15, 0, 0
1486726348.8685908, -155, -53, 116, 70, -16, -9, -17, -8, 0, 0
1486726348.869263, -152, -53, 93, 65, -21, -13, -15, -9, 0, 0
1486726348.8830428, -146, -49, 93, 70, -16, -18, -11, -12, 0, 0
1486726348.8834848, -150, -51, 113, 77, -16, -9, -13, -11, 0, 0
1486726348.8842158, -148, -48, 121, 85, -21, -9, -11, -5, 0, 0
1486726348.8850777, -144, -58, 133, 98, -9, -9, -11, -10, 0, 0
1486726348.8904803, -147, -50, 91, 72, -26, -12, -14, -16, 0, 0
1486726348.8910933, -141, -48, 86, 77, -14, -6, -7, -11, 0, 0
1486726348.9055154, -149, -43, 119, 110, -10, -2, -6, -3, 0, 0
1486726348.9058657, -150, -47, 122, 81, -20, -13, -12, -11, 0, 0
1486726348.9068232, -151, -52, 104, 63, -23, -14, -14, -11, 0, 0
1486726348.9205122, -154, -50, 89, 67, -17, -13, -9, -13, 0, 0
1486726348.9208887, -154, -52, 91, 73, -14, -7, -14, -19, 0, 0
1486726348.9215608, -150, -64, 107, 91, -14, -15, -22, -5, 0, 0
1486726348.9223485, -155, -48, 121, 85, -21, -9, -11, -5, 0, 0
1486726348.9279888, -158, -59, 105, 86, -15, -10, -18, -20, 0, 0
1486726348.928387, -143, -56, 79, 69, -17, -13, -14, -13, 0, 0
1486726348.9292552, -147, -58, 85, 90, -14, -6, -7, -11, 0, 0
1486726348.9429665, -142, -62, 101, 106, -4, -13, -12, -6, 0, 0
1486726348.9433577, -144, -61, 111, 90, -9, -13, -21, -10, 0, 0
1486726348.9439604, -147, -51, 98, 75, -18, -13, -14, -11, 0, 0
1486726348.9579349, -144, -52, 79, 77, -10, -16, -9, -14, 0, 0
1486726348.9582994, -145, -55, 90, 92, -18, -9, -12, -11, 0, 0
1486726348.9591875, -153, -63, 118, 101, -5, 1, -13, -5, 0, 0
1486726348.9655318, -155, -53, 129, 106, -10, -9, -13, -18, 0, 0
1486726348.9659054, -153, -51, 99, 65, -16, -10, -14, -21, 0, 0
1486726348.9667196, -152, -50, 99, 92, -14, -12, -12, -9, 0, 0
1486726348.9805286, -157, -55, 110, 102, -9, -11, -12, -16, 0, 0
1486726348.9809175, -155, -64, 121, 104, -13, -13, -17, -8, 0, 0
1486726348.9817233, -163, -59, 128, 95, -18, -13, -21, -10, 0, 0
1486726348.9955058, -150, -47, 110, 71, -12, -5, -7, -10, 0, 0
1486726348.9958603, -154, -44, 105, 89, -11, -8, -12, -8, 0, 0
1486726348.996569, -163, -53, 112, 87, -6, -11, -12, -11, 0, 0
1486726349.003175, -157, -61, 132, 118, -10, -8, -7, -15, 0, 0
1486726349.0036106, -158, -53, 131, 85, -8, -8, -16, -7, 0, 0
1486726349.0042143, -148, -49, 95, 70, -8, -10, -15, -14, 0, 0
1486726349.0183814, -149, -54, 94, 75, -6, -8, -11, -13, 0, 0
1486726349.0186725, -150, -59, 105, 87, -12, -11, -7, -7, 0, 0
1486726349.0192537, -150, -64, 118, 87, -4, -14, -17, -9, 0, 0
1486726349.0330162, -152, -59, 114, 84, -22, -16, -15, -10, 0, 0
1486726349.0334072, -145, -52, 101, 75, -18, -8, -14, -15, 0, 0
1486726349.0342104, -146, -61, 80, 64, -10, -8, -12, -8, 0, 0
1486726349.040421, -144, -65, 98, 69, -12, -6, -14, -17, 0, 0
1486726349.0408072, -153, -65, 113, 85, -11, -12, -16, -9, 0, 0
1486726349.0417254, -147, -61, 112, 81, -13, -9, -16, -7, 0, 0
1486726349.055397, -150, -65, 87, 69, -19, -14, -13, -12, 0, 0
1486726349.0558066, -143, -69, 81, 64, -17, -11, -10, -4, 0, 0
1486726349.0567303, -135, -76, 101, 88, -10, -10, -12, -7, 0, 0
1486726349.0704489, -145, -73, 111, 82, -16, -5, -14, -10, 0, 0
1486726349.0708435, -141, -65, 91, 56, -14, -11, -12, -17, 0, 0
1486726349.071753, -141, -66, 73, 45, -11, -9, -9, -7, 0, 0
1486726349.0781372, -149, -76, 85, 57, -4, -8, -14, -7, 0, 0
1486726349.0785882, -150, -79, 98, 80, -10, -8, -5, -10, 0, 0
1486726349.0792158, -145, -74, 110, 80, -16, -12, -16, -9, 0, 0
1486726349.0929084, -141, -68, 89, 74, -14, -10, -10, -11, 0, 0
1486726349.0932782, -143, -65, 77, 47, -22, -16, -13, -8, 0, 0
1486726349.0940053, -140, -69, 78, 66, -12, -4, -10, -4, 0, 0
1486726349.1081927, -145, -71, 102, 89, -9, -10, -8, -11, 0, 0
1486726349.1085873, -137, -73, 112, 70, -12, -10, -16, -15, 0, 0
1486726349.1094434, -137, -64, 96, 68, -20, -11, -16, -12, 0, 0
1486726349.1155097, -148, -70, 84, 67, -14, -9, -15, -16, 0, 0
1486726349.115895, -145, -72, 92, 73, -8, -9, -13, -5, 0, 0
1486726349.116623, -140, -69, 115, 90, -12, -10, -20, -10, 0, 0
1486726349.1381218, -138, -65, 119, 103, -13, -7, -21, -17, 0, 0
1486726349.1385148, -146, -68, 93, 76, -17, -15, -13, -13, 0, 0
1486726349.13918, -137, -56, 89, 74, -12, -13, -7, -10, 0, 0
1486726349.1398945, -140, -69, 78, 66, -12, -4, -9, -11, 0, 0
1486726349.1455772, -147, -61, 121, 96, -8, -13, -11, -5, 0, 0
1486726349.1460018, -149, -57, 112, 74, -9, -13, -16, -16, 0, 0
1486726349.146468, -133, -64, 96, 68, -20, -11, -16, -12, 0, 0
1486726349.1530046, -143, -71, 73, 76, -13, -12, -18, -7, 0, 0
1486726349.1534069, -138, -65, 88, 87, -11, -8, -8, -13, 0, 0
1486726349.153984, -141, -67, 109, 90, -12, -10, -20, -10, 0, 0
1486726349.1690238, -141, -69, 98, 69, -16, -12, -14, -13, 0, 0
1486726349.1690943, -137, -63, 76, 55, -16, -8, -9, -16, 0, 0
1486726349.1697776, -137, -57, 69, 66, -12, -13, -7, -10, 0, 0
1486726349.1829207, -137, -64, 92, 68, -12, -8, -13, -12, 0, 0
1486726349.1833255, -143, -69, 111, 101, -9, -7, -11, -6, 0, 0
1486726349.1868742, -150, -62, 105, 60, -16, -10, -13, -16, 0, 0
1486726349.190681, -144, -61, 83, 63, -22, -16, -11, -19, 0, 0
1486726349.1912415, -143, -62, 81, 70, -15, -10, -14, -17, 0, 0
1486726349.1926165, -141, -73, 87, 60, -10, -13, -11, -13, 0, 0
1486726349.2063057, -146, -72, 114, 67, -8, -11, -6, -14, 0, 0
1486726349.2063754, -149, -68, 105, 65, -12, -14, -14, -10, 0, 0
1486726349.208693, -138, -61, 78, 58, -16, -8, -9, -16, 0, 0
1486726349.2211735, -130, -63, 75, 59, -10, -14, -8, -8, 0, 0
1486726349.2230315, -142, -75, 88, 74, -7, -9, -13, -11, 0, 0
1486726349.2231016, -138, -65, 109, 82, -9, -14, -10, -6, 0, 0
1486726349.227948, -139, -61, 97, 60, -10, -10, -13, -21, 0, 0
1486726349.228903, -132, -58, 86, 60, -16, -9, -12, -15, 0, 0
1486726349.229168, -136, -59, 75, 61, -14, -6, -3, -7, 0, 0
1486726349.2428925, -136, -61, 99, 82, -16, -6, -10, -18, 0, 0
1486726349.2431355, -136, -57, 111, 76, -12, -7, -5, -11, 0, 0
1486726349.2450469, -131, -50, 83, 68, -22, -14, -13, -21, 0, 0
1486726349.2578814, -122, -48, 64, 46, -19, -12, -13, -12, 0, 0
1486726349.258857, -126, -64, 73, 76, -12, -14, -16, -14, 0, 0
1486726349.2612977, -132, -64, 94, 84, -15, -9, -13, -11, 0, 0
1486726349.2653859, -132, -60, 92, 56, -17, -6, -9, -8, 0, 0
1486726349.2661552, -134, -60, 79, 54, -16, -12, -1, -9, 0, 0
1486726349.2664573, -130, -52, 68, 61, -17, -9, -12, -15, 0, 0
1486726349.2803652, -124, -50, 80, 55, -8, -11, -8, -8, 0, 0
1486726349.2814238, -129, -57, 88, 68, -5, -7, -16, -10, 0, 0
1486726349.2827396, -134, -53, 91, 57, -15, -10, -8, -11, 0, 0
1486726349.2953875, -134, -46, 91, 70, -10, -5, -13, -13, 0, 0
1486726349.2964168, -133, -40, 78, 70, -9, -6, -12, -14, 0, 0
1486726349.2968535, -131, -54, 86, 73, -6, -1, -5, -9, 0, 0
1486726349.302918, -134, -49, 97, 72, -9, -12, -8, -6, 0, 0
1486726349.3038611, -129, -45, 101, 59, -19, -16, -16, -18, 0, 0
1486726349.308787, -123, -45, 83, 45, -18, -5, -4, -7, 0, 0
1486726349.3185904, -127, -38, 72, 46, -14, -14, -9, -9, 0, 0
1486726349.3187478, -129, -52, 75, 75, -14, -16, -17, -7, 0, 0
1486726349.319098, -121, -53, 85, 68, -18, -14, -16, -10, 0, 0
1486726349.3328836, -130, -47, 91, 70, -8, -5, -3, -11, 0, 0
1486726349.3337991, -133, -44, 73, 51, -13, -8, -10, -12, 0, 0
1486726349.3350377, -130, -39, 73, 47, -7, -9, -5, -14, 0, 0
1486726349.340253, -126, -48, 83, 78, -1, -7, -8, -8, 0, 0
1486726349.34107, -123, -56, 101, 67, -7, -7, -10, -9, 0, 0
1486726349.3423288, -121, -42, 99, 66, -6, -6, -3, -9, 0, 0
1486726349.3554723, -123, -46, 77, 55, -16, -12, -9, -14, 0, 0
1486726349.3557866, -121, -40, 69, 55, -13, -14, -11, -8, 0, 0
1486726349.3564982, -123, -45, 71, 63, -10, -16, -13, -12, 0, 0
1486726349.37039, -123, -54, 82, 74, -8, -16, -6, -11, 0, 0
1486726349.3711202, -131, -54, 80, 62, -14, -17, -11, -14, 0, 0
1486726349.3719683, -122, -48, 62, 53, -16, -12, -15, -15, 0, 0
1486726349.3747606, -130, -39, 73, 47, -7, -9, -5, -14, 0, 0
1486726349.3777878, -121, -55, 77, 73, -7, -12, -9, -11, 0, 0
1486726349.3787727, -132, -53, 102, 68, -4, -9, -11, -11, 0, 0
1486726349.3820965, -126, -42, 99, 66, -6, -6, -3, -9, 0, 0
1486726349.3928082, -124, -39, 60, 57, -15, -12, -13, -20, 0, 0
1486726349.3935924, -115, -47, 53, 39, -15, -13, -17, -17, 0, 0
1486726349.3943012, -128, -60, 71, 63, -10, -16, -13, -12, 0, 0
1486726349.407805, -124, -60, 80, 49, -12, -11, -13, -16, 0, 0
1486726349.4085283, -118, -49, 65, 46, -20, -12, -8, 0, 0, 0
1486726349.4113905, -121, -45, 60, 53, -16, -12, -15, -15, 0, 0
1486726349.415395, -120, -50, 53, 45, -12, -12, -13, -9, 0, 0
1486726349.4162607, -118, -58, 67, 74, -10, -14, -11, -9, 0, 0
1486726349.4171576, -124, -61, 85, 71, -12, -9, -11, -11, 0, 0
1486726349.4312572, -117, -50, 68, 38, -21, -16, -10, -12, 0, 0
1486726349.4343617, -110, -44, 45, 50, -9, -12, -15, -4, 0, 0
1486726349.4344325, -110, -51, 43, 58, -11, -15, -17, -17, 0, 0
1486726349.447628, -111, -51, 68, 75, -4, -7, -16, -18, 0, 0
1486726349.452786, -116, -49, 71, 53, -11, -12, -12, -4, 0, 0
1486726349.453592, -116, -38, 66, 42, -11, -10, -4, -7, 0, 0
1486726349.4543412, -118, -43, 42, 44, 0, -3, -8, -12, 0, 0
1486726349.4547918, -116, -42, 48, 67, -6, -6, -11, -18, 0, 0
1486726349.4623332, -112, -52, 71, 67, -7, -6, -11, -9, 0, 0
1486726349.467792, -131, -46, 83, 71, -10, -10, -11, -16, 0, 0
1486726349.4686954, -115, -41, 60, 62, -14, -12, -13, -12, 0, 0
1486726349.4707692, -113, -43, 49, 48, -11, -10, -7, -14, 0, 0
1486726349.4827607, -117, -52, 51, 51, -16, -6, -6, -17, 0, 0
1486726349.4837136, -116, -55, 74, 58, -9, -11, -11, -8, 0, 0
1486726349.486751, -116, -50, 80, 46, -17, -15, -9, -10, 0, 0
1486726349.4902966, -114, -36, 64, 39, -25, -22, -13, -10, 0, 0
1486726349.490718, -107, -43, 48, 37, -16, -13, -13, -14, 0, 0
1486726349.4918003, -111, -51, 65, 73, -7, -12, -21, -13, 0, 0
1486726349.5056944, -119, -53, 80, 68, -16, -12, -15, -11, 0, 0
1486726349.506176, -115, -52, 73, 48, -14, -10, -9, -8, 0, 0
1486726349.5067976, -110, -43, 50, 41, -14, -12, -4, -20, 0, 0
1486726349.520802, -116, -44, 60, 52, -15, -10, -6, -22, 0, 0
1486726349.5214415, -119, -56, 66, 59, -11, -10, -14, -22, 0, 0
1486726349.5226166, -114, -59, 80, 64, -8, -11, -11, -8, 0, 0
1486726349.5277197, -106, -54, 79, 72, -17, -6, -15, -17, 0, 0
1486726349.528038, -112, -47, 56, 46, -19, -14, -17, -14, 0, 0
1486726349.530332, -105, -50, 49, 44, -13, -20, -13, -14, 0, 0
1486726349.5427513, -108, -54, 65, 47, -13, -9, -6, -7, 0, 0
1486726349.5436032, -110, -52, 76, 59, -15, -15, -15, -7, 0, 0
1486726349.5494528, -108, -42, 79, 57, -20, -18, -18, -17, 0, 0
1486726349.557795, -113, -37, 60, 48, -12, -17, -15, -9, 0, 0
1486726349.5586996, -105, -34, 56, 48, -5, -12, -6, -9, 0, 0
1486726349.5609212, -105, -47, 75, 52, -7, -10, -14, -22, 0, 0
1486726349.5745203, -109, -57, 83, 61, -9, -14, -17, -11, 0, 0
1486726349.5746365, -112, -43, 71, 43, -21, -23, -11, -14, 0, 0
1486726349.575185, -106, -37, 46, 30, -17, -14, -17, -14, 0, 0
1486726349.581175, -96, -36, 41, 34, -14, -13, -6, -5, 0, 0
1486726349.582055, -100, -44, 54, 38, -18, -14, -13, -9, 0, 0
1486726349.5821266, -114, -39, 71, 41, -16, -13, -13, -7, 0, 0
1486726349.5953028, -101, -33, 59, 36, -16, -15, -10, -5, 0, 0
1486726349.5961862, -103, -30, 42, 28, -17, -12, -3, -13, 0, 0
1486726349.5973043, -108, -35, 57, 64, -7, -13, -9, -15, 0, 0
1486726349.602761, -109, -43, 70, 65, -8, -14, -14, -21, 0, 0
1486726349.603544, -113, -40, 83, 62, -10, -13, -8, -18, 0, 0
1486726349.6042492, -108, -25, 73, 42, -9, -7, -7, -18, 0, 0
1486726349.605547, -106, -37, 46, 30, -17, -14, -5, -9, 0, 0
1486726349.6177669, -104, -28, 55, 44, -11, -14, -14, -5, 0, 0
1486726349.6181695, -108, -39, 75, 61, -8, -15, -8, -6, 0, 0
1486726349.622019, -114, -39, 71, 41, -16, -13, -13, -18, 0, 0
1486726349.6326952, -107, -26, 77, 49, -14, -9, -9, -12, 0, 0
1486726349.6336272, -101, -12, 69, 59, -15, -8, -15, -10, 0, 0
1486726349.6342313, -101, -35, 57, 64, -7, -13, -9, -15, 0, 0
1486726349.640248, -110, -28, 90, 63, -11, -7, -10, -10, 0, 0
1486726349.6412916, -101, -31, 86, 72, -17, -16, -12, -13, 0, 0
1486726349.642656, -104, -27, 62, 42, -9, -7, -7, -18, 0, 0
1486726349.6552353, -95, -25, 36, 27, -15, -15, -6, -6, 0, 0
1486726349.6556482, -103, -30, 73, 56, -4, -12, -9, -7, 0, 0
1486726349.6583362, -113, -43, 104, 90, -8, -15, -8, -6, 0, 0
1486726349.6714294, -98, -50, 60, 45, -14, -14, -17, -17, 0, 0
1486726349.6717892, -66, -45, 30, 30, -16, -11, -12, -18, 0, 0
1486726349.6718261, -59, -43, 10, 19, -13, -5, -5, -13, 0, 0
1486726349.6776612, -40, -59, 0, -1, -6, -8, -16, -14, 0, 0
1486726349.6786227, -4, -76, 2, 1, -15, -12, -14, -17, 0, 0
1486726349.6825726, 4, -84, -21, -14, -8, -11, -7, -14, 0, 0
1486726349.6926866, 27, -96, -64, -37, -11, -12, -3, -15, 0, 0
1486726349.693617, 59, -115, -102, -53, -10, -12, -10, -5, 0, 0
1486726349.694542, 75, -128, -97, -47, -12, -17, -9, -4, 0, 0
1486726349.7076514, 93, -133, -100, -73, -14, -12, -6, -14, 0, 0
1486726349.7084122, 108, -136, -114, -82, -15, -16, -12, -13, 0, 0
1486726349.7088325, 116, -130, -139, -89, -12, -11, -12, -18, 0, 0
1486726349.7151966, 129, -124, -149, -91, -12, -19, -16, -14, 0, 0
1486726349.7161326, 131, -133, -139, -87, -12, -12, -9, -11, 0, 0
1486726349.7196321, 133, -133, -129, -84, -9, -2, -14, -17, 0, 0
1486726349.730736, 136, -125, -143, -87, -14, -13, -14, -15, 0, 0
1486726349.7311087, 138, -121, -156, -79, -8, -11, -14, -15, 0, 0
1486726349.7354615, 136, -112, -149, -87, -9, -11, -11, -5, 0, 0
1486726349.7451823, 136, -114, -138, -70, -10, -10, -11, -8, 0, 0
1486726349.7459984, 136, -113, -118, -72, -10, -14, -14, -17, 0, 0
1486726349.7499595, 131, -105, -121, -88, -23, -17, -12, -11, 0, 0
1486726349.7526987, 140, -93, -145, -84, -21, -11, -10, -11, 0, 0
1486726349.7536025, 140, -104, -150, -79, -10, -17, -20, -21, 0, 0
1486726349.7550359, 147, -103, -125, -63, -16, -15, -18, -14, 0, 0
1486726349.7676554, 134, -98, -104, -69, -11, -15, -9, -13, 0, 0
1486726349.768589, 136, -90, -122, -61, -19, -17, -11, -16, 0, 0
1486726349.7707074, 135, -94, -145, -70, -14, -11, -12, -15, 0, 0
1486726349.783614, 127, -102, -139, -66, -12, -10, -7, -21, 0, 0
1486726349.7872384, 132, -100, -121, -68, -14, -9, -10, -29, 0, 0
1486726349.7873082, 130, -99, -108, -49, -10, -6, -5, -21, 0, 0
1486726349.790071, 132, -86, -120, -62, -18, -13, -9, -18, 0, 0
1486726349.791157, 134, -84, -132, -62, -12, -11, -11, -16, 0, 0
1486726349.7919304, 135, -93, -141, -50, -13, -7, -6, -17, 0, 0
1486726349.805148, 134, -102, -122, -37, -10, -9, -4, -17, 0, 0
1486726349.80552, 137, -99, -111, -51, -9, -7, -11, -13, 0, 0
1486726349.806977, 124, -87, -133, -66, -14, -17, -11, -16, 0, 0
1486726349.8206382, 142, -84, -144, -59, -10, -15, -14, -17, 0, 0
1486726349.8210416, 140, -85, -140, -45, -12, -17, -9, -15, 0, 0
1486726349.822039, 136, -90, -118, -28, -4, -8, -10, -29, 0, 0
1486726349.8276236, 136, -80, -117, -56, -14, -14, -15, -18, 0, 0
1486726349.8308535, 137, -71, -131, -66, -14, -13, -10, -13, 0, 0
1486726349.8366058, 138, -74, -139, -48, -10, -16, -14, -14, 0, 0
1486726349.8426554, 141, -82, -131, -40, -3, -6, -12, -12, 0, 0
1486726349.8436732, 136, -86, -105, -41, -5, -6, -9, -7, 0, 0
1486726349.8460348, 128, -86, -96, -41, -13, -12, -9, -18, 0, 0
1486726349.8576214, 121, -81, -115, -58, -14, -12, -24, -22, 0, 0
1486726349.8583868, 133, -69, -123, -65, -11, -11, -14, -9, 0, 0
1486726349.8590903, 128, -82, -120, -49, -13, -13, -14, -8, 0, 0
1486726349.862053, 128, -86, -118, -28, -4, -8, -13, -15, 0, 0
1486726349.865171, 132, -84, -114, -43, -16, -20, -14, -20, 0, 0
1486726349.8663597, 128, -87, -133, -52, -22, -16, -16, -15, 0, 0
1486726349.8801785, 138, -90, -145, -58, -11, -16, -16, -17, 0, 0
1486726349.8809493, 125, -87, -117, -32, -23, -17, -12, -14, 0, 0
1486726349.882348, 127, -86, -100, -29, -10, -13, -8, -12, 0, 0
1486726349.8950841, 127, -78, -96, -51, -26, -16, -7, -14, 0, 0
1486726349.8959556, 132, -69, -118, -64, -12, -11, -8, -13, 0, 0
1486726349.8966691, 129, -75, -125, -52, -15, -6, -13, -16, 0, 0
1486726349.8977578, 130, -82, -120, -49, -13, -13, -14, -8, 0, 0
1486726349.9025676, 131, -85, -100, -35, -17, -13, -12, -14, 0, 0
1486726349.9035316, 128, -83, -112, -58, -21, -12, -11, -23, 0, 0
1486726349.9039235, 122, -79, -128, -51, -22, -16, -16, -15, 0, 0
1486726349.9176185, 135, -74, -129, -43, -18, -13, -17, -14, 0, 0
1486726349.9185858, 131, -82, -112, -22, -7, -7, -14, -18, 0, 0
1486726349.9192955, 122, -81, -111, -38, -10, -13, -8, -12, 0, 0
1486726349.932538, 123, -73, -116, -47, -16, -16, -19, -22, 0, 0
1486726349.933534, 127, -68, -141, -59, -13, -3, -8, -8, 0, 0
1486726349.9364088, 125, -76, -128, -45, -11, -6, -13, -16, 0, 0
1486726349.9410331, 120, -80, -112, -24, -10, -8, -14, -18, 0, 0
1486726349.941113, 112, -86, -97, -28, -12, -13, -16, -13, 0, 0
1486726349.941559, 111, -77, -106, -28, -17, -11, -11, -23, 0, 0
1486726349.955077, 118, -74, -129, -54, -11, -20, -20, -16, 0, 0
1486726349.9559357, 123, -79, -121, -34, -12, -11, -17, -15, 0, 0
1486726349.9576476, 126, -84, -105, -21, -10, -6, -7, -18, 0, 0
1486726349.970038, 129, -84, -113, -25, -12, -14, -20, -21, 0, 0
1486726349.971008, 139, -76, -133, -32, -21, -13, -16, -12, 0, 0
1486726349.9722443, 131, -74, -137, -33, -17, -11, -9, -7, 0, 0
1486726349.977611, 132, -77, -127, -38, -14, -12, -11, -13, 0, 0
1486726349.9779465, 119, -74, -100, -23, -8, -10, -10, -19, 0, 0
1486726349.9832933, 121, -74, -97, -25, -18, -8, -11, -8, 0, 0
1486726349.9925368, 122, -69, -113, -33, -20, -7, -8, -15, 0, 0
1486726349.9930542, 129, -67, -133, -53, -16, -11, -8, -8, 0, 0
1486726349.9937904, 126, -75, -119, -43, -15, -256, -17, -15, 0, 0
1486726350.0075595, 130, -83, -109, -32, -10, -10, -5, -16, 0, 0
1486726350.0085073, 121, -82, -113, -28, -15, -7, -7, -18, 0, 0
1486726350.0092123, 127, -60, -116, -42, -11, -8, -16, -12, 0, 0
1486726350.015076, 126, -57, -131, -39, -20, -6, -8, -11, 0, 0
1486726350.0159, 120, -64, -113, -47, -16, -6, -6, -12, 0, 0
1486726350.017995, 123, -63, -91, -22, -13, -8, -10, -12, 0, 0
1486726350.0300424, 117, -55, -95, -20, -9, -7, -5, -13, 0, 0
1486726350.0308113, 127, -55, -121, -54, -17, -12, -11, -8, 0, 0
1486726350.0324986, 118, -60, -118, -45, -17, -11, -8, -8, 0, 0
1486726350.045082, 115, -69, -107, -13, -9, -11, -7, -16, 0, 0
1486726350.045958, 113, -72, -98, -31, -15, -12, -18, -15, 0, 0
1486726350.0465345, 114, -67, -102, -30, -12, -7, -7, -18, 0, 0
1486726350.0525556, 119, -66, -125, -54, -15, -9, -9, -18, 0, 0
1486726350.0535104, 124, -63, -131, -52, -6, -2, -8, -12, 0, 0
1486726350.0546997, 122, -68, -115, -23, -5, -7, -6, -12, 0, 0
1486726350.0750237, 117, -69, -100, -9, -13, -10, -17, -16, 0, 0
1486726350.0758605, 118, -63, -97, -16, -20, -13, -13, -12, 0, 0
1486726350.0775094, 119, -61, -120, -34, -20, -14, -13, -14, 0, 0
1486726350.0825722, 109, -71, -127, -47, -14, -12, -17, -9, 0, 0
1486726350.0834768, 115, -72, -110, -18, -15, -16, -10, -6, 0, 0
1486726350.0841436, 106, -74, -96, -33, -12, -12, -18, -15, 0, 0
1486726350.0901356, 106, -65, -10753, -3585, -3585, -2305, -3841, 9471, 0, 0
1486726350.0921416, 109, -72, -123, -26, -13, -17, -13, -19, 0, 0
1486726350.104979, 114, -67, -109, -15, -14, -14, -16, -14, 0, 0
1486726350.105741, 108, -69, -96, -25, -17, -9, -17, -13, 0, 0
1486726350.1074388, 108, -67, -114, -36, -12, -12, -13, -16, 0, 0
1486726350.120012, 111, -61, -131, -54, -14, -14, -11, -24, 0, 0
1486726350.1209638, 115, -65, -131, -32, -15, -17, -17, -19, 0, 0
1486726350.122181, 106, -73, -115, -22, -16, -9, -17, -11, 0, 0
1486726350.1274405, 109, -73, -98, -42, -16, -11, -7, -18, 0, 0
1486726350.1283991, 111, -63, -115, -40, -16, -12, -4, -14, 0, 0
1486726350.1288755, 113, -59, -126, -50, -10, -9, -11, -14, 0, 0
1486726350.1298106, 104, -62, -119, -26, -13, -17, -13, -19, 0, 0
1486726350.1501024, 106, -59, -102, -35, -14, -14, -23, -20, 0, 0
1486726350.1505966, 105, -60, -105, -38, -11, -14, -7, -15, 0, 0
1486726350.150951, 108, -62, -129, -36, -12, -12, -13, -16, 0, 0
1486726350.152542, 111, -49, -133, -57, -10, -13, -14, -19, 0, 0
1486726350.1575801, 108, -60, -128, -42, -9, -5, -11, -10, 0, 0
1486726350.1583931, 112, -69, -118, -29, -16, -9, -17, -11, 0, 0
1486726350.1654513, 112, -70, -111, -20, -16, -1, -5, -14, 0, 0
1486726350.1659918, 110, -67, -132, -60, -19, -9, -10, -17, 0, 0
1486726350.169467, 112, -63, -145, -46, -17, -10, -11, -14, 0, 0
1486726350.1805208, 115, -74, -145, -39, -12, -10, -8, -18, 0, 0
1486726350.1809733, 112, -76, -116, -17, -4, -7, -8, -14, 0, 0
1486726350.182357, 101, -76, -111, -23, -8, -16, -14, -15, 0, 0
1486726350.195058, 110, -72, -132, -45, -15, -18, -15, -12, 0, 0
1486726350.1959393, 103, -64, -136, -51, -16, -10, -8, -16, 0, 0
1486726350.1971977, 113, -70, -127, -39, -12, -12, -17, -14, 0, 0
1486726350.2024906, 106, -79, -114, -27, -14, -17, -13, -14, 0, 0
1486726350.2034144, 97, -73, -105, -25, -14, -2, -10, -19, 0, 0
1486726350.205121, 102, -69, -130, -36, -18, -9, -10, -17, 0, 0
1486726350.2175367, 97, -69, -127, -30, -18, -12, -12, -10, 0, 0
1486726350.218361, 101, -76, -110, -14, -17, -14, -17, -19, 0, 0
1486726350.2224822, 95, -77, -93, -23, -12, -9, -13, -9, 0, 0
1486726350.2324765, 98, -76, -96, -33, -9, -7, -13, -17, 0, 0
1486726350.233276, 97, -68, -121, -49, -15, -14, -13, -21, 0, 0
1486726350.2345872, 99, -73, -128, -29, -8, -12, -11, -17, 0, 0
1486726350.2405534, 100, -74, -112, -20, -11, -12, -7, -10, 0, 0
1486726350.2419488, 95, -73, -97, -30, -10, -10, -5, -15, 0, 0
1486726350.2440028, 94, -69, -101, -15, -14, -8, -10, -5, 0, 0
1486726350.2549403, 103, -71, -126, -42, -23, -14, -13, -12, 0, 0
1486726350.2559314, 99, -65, -118, -40, -17, -9, -9, -5, 0, 0
1486726350.2587736, 99, -67, -106, -24, -13, -12, -13, -19, 0, 0
1486726350.2700863, 106, -68, -101, -15, -15, -12, -22, -24, 0, 0
1486726350.2708201, 98, -69, -108, -38, -19, -4, -11, -15, 0, 0
1486726350.27223, 100, -66, -135, -62, -14, -6, -13, -21, 0, 0
1486726350.2773972, 106, -66, -134, -43, -13, -8, -20, -16, 0, 0
1486726350.2783217, 100, -72, -119, -35, -3, -1, -18, -18, 0, 0
1486726350.285629, 100, -68, -95, -22, -17, -7, -10, -15, 0, 0
1486726350.2923017, 99, -66, -116, -35, -21, -9, -12, -21, 0, 0
1486726350.293303, 101, -63, -138, -55, -6, -3, -16, -13, 0, 0
1486726350.2947707, 104, -67, -122, -44, -14, -10, -13, -5, 0, 0
1486726350.307432, 94, -69, -95, -7, -5, 2, -4, -6, 0, 0
1486726350.3083704, 90, -61, -86, -1, -5, -4, -9, -13, 0, 0
1486726350.311343, 97, -60, -99, -38, -18, -6, 2, -10, 0, 0
1486726350.322416, 99, -54, -121, -37, -14, -15, -16, -10, 0, 0
1486726350.3226662, 96, -66, -112, -37, -9, -3, -12, -17, 0, 0
1486726350.3276443, 95, -74, -102, -12, -4, 0, -15, -21, 0, 0
1486726350.3299668, 98, -70, -98, -30, -10, -9, -13, -15, 0, 0
1486726350.3308465, 99, -58, -112, -27, -14, -12, -12, -14, 0, 0
1486726350.333094, 99, -63, -125, -27, -11, -3, -16, -13, 0, 0
1486726350.3466167, 101, -73, -113, -30, -11, -9, -12, -7, 0, 0
1486726350.3598986, 92, -73, -86, -21, -7, -5, -12, -11, 0, 0
1486726350.3607423, 96, -71, -86, -27, -17, -7, -16, -15, 0, 0
1486726350.3614292, 93, -66, -97, -21, -9, -10, -17, -16, 0, 0
1486726350.3629158, 87, -67, -114, -25, -7, -6, -13, -18, 0, 0
1486726350.3674169, 95, -78, -113, -20, -3, -7, -15, -16, 0, 0
1486726350.3682206, 95, -78, -85, -3, -4, -13, -11, -19, 0, 0
1486726350.3687792, 88, -71, -84, -13, -13, -9, -15, -14, 0, 0
1486726350.370417, 97, -70, -95, -42, -17, -11, -14, -18, 0, 0
1486726350.375812, 99, -63, -125, -27, -11, -17, -21, -25, 0, 0
1486726350.3826714, 92, -76, -100, -14, -4, -10, -13, -13, 0, 0
1486726350.387795, 87, -81, -83, -19, -11, -7, -18, -9, 0, 0
1486726350.390827, 85, -71, -81, -1, -5, -7, -18, -24, 0, 0
1486726350.391364, 89, -61, -104, -18, -11, -13, -17, -23, 0, 0
1486726350.3914013, 88, -63, -109, -26, -4, -8, -18, -15, 0, 0
1486726350.392763, 90, -69, -111, -31, -3, -7, -15, -16, 0, 0
1486726350.4060059, 88, -66, -84, -5, -4, -6, -14, -17, 0, 0
1486726350.4072845, 84, -66, -84, -32, -11, -5, -6, -13, 0, 0
1486726350.407354, 86, -58, -110, -34, -6, -11, -14, -18, 0, 0
1486726350.4198601, 91, -54, -112, -34, -6, -9, -8, -17, 0, 0
1486726350.420888, 89, -65, -97, -17, -8, -5, -19, -5, 0, 0
1486726350.4224994, 92, -55, -87, -16, -8, -7, -18, -9, 0, 0
1486726350.42743, 84, -55, -97, -32, -17, -12, -13, -14, 0, 0
1486726350.4284499, 87, -56, -117, -24, -6, -6, -20, -26, 0, 0
1486726350.4301472, 93, -65, -118, -26, -7, -8, -18, -15, 0, 0
1486726350.4424195, 90, -70, -102, -3, -9, -11, -19, -25, 0, 0
1486726350.4434342, 89, -70, -85, -11, -11, -17, -15, -23, 0, 0
1486726350.4460254, 83, -61, -95, -31, -14, -9, -12, -15, 0, 0
1486726350.4573004, 87, -58, -117, -44, -23, -18, -17, -20, 0, 0
1486726350.4582598, 91, -55, -117, -37, -16, -18, -22, -8, 0, 0
1486726350.461568, 91, -60, -99, -26, -17, -14, -16, -11, 0, 0
1486726350.4648986, 96, -58, -96, -11, -13, -12, -13, -15, 0, 0
1486726350.465189, 90, -41, -103, -18, -8, -10, -18, -19, 0, 0
1486726350.4669838, 87, -40, -117, -42, -18, -12, -13, -14, 0, 0
1486726350.4798272, 81, -40, -109, -17, -9, -8, -18, -13, 0, 0
1486726350.4807777, 82, -45, -86, -4, -9, -22, -15, -13, 0, 0
1486726350.4820304, 86, -44, -76, -19, -16, -17, -15, -23, 0, 0
1486726350.498471, 90, -40, -93, -8, -13, -15, -14, -18, 0, 0
1486726350.4985428, 86, -43, -112, -24, -12, -16, -12, -3, 0, 0
1486726350.502005, 89, -48, -106, -22, -3, -10, -22, -8, 0, 0
1486726350.5024598, 86, -43, -80, -11, -10, -14, -11, -15, 0, 0
1486726350.50332, 84, -43, -86, -32, -13, -15, -12, -14, 0, 0
1486726350.5070412, 88, -38, -102, -27, -7, -14, -16, -19, 0, 0
1486726350.5172725, 86, -36, -115, -28, -10, -12, -16, -13, 0, 0
1486726350.5181298, 87, -38, -104, -25, -11, -13, -14, -15, 0, 0
1486726350.5195394, 84, -43, -86, -1, -9, -14, -16, -20, 0, 0
1486726350.5323517, 84, -46, -87, -20, -14, -12, -11, -17, 0, 0
1486726350.5332475, 86, -47, -104, -20, -14, -12, -21, -25, 0, 0
1486726350.536265, 89, -44, -111, -25, -6, -10, -7, -21, 0, 0
1486726350.5405397, 92, -54, -110, -28, -2, -8, -13, -15, 0, 0
1486726350.540836, 95, -51, -83, 7, -4, -10, -13, -10, 0, 0
1486726350.5421786, 85, -42, -84, -16, -10, -15, -12, -14, 0, 0
1486726350.5558507, 84, -44, -107, -16, -13, -14, -18, -25, 0, 0
1486726350.5575964, 87, -46, -121, -14, -12, -11, -12, -13, 0, 0
1486726350.5576675, 91, -51, -97, 3, -9, -10, -14, -15, 0, 0
1486726350.569883, 76, -53, -74, 1, -12, -10, -10, -32, 0, 0
1486726350.5709178, 83, -39, -75, -24, -24, -11, -13, -21, 0, 0
1486726350.5719378, 78, -32, -86, -20, -9, -17, -8, -25, 0, 0
1486726350.5848706, 80, -34, -92, -3, -7, -15, -18, -19, 0, 0
1486726350.5858843, 78, -46, -87, 0, -9, -10, -7, -17, 0, 0
1486726350.5871012, 79, -44, -75, -11, -10, -17, -16, -13, 0, 0
1486726350.5922654, 80, -40, -77, -10, -7, -10, -16, -20, 0, 0
1486726350.5934105, 81, -35, -100, -28, -12, -19, -21, -20, 0, 0
1486726350.594002, 82, -38, -107, 1, -12, -12, -17, -17, 0, 0
1486726350.6082067, 79, -50, -97, -5, -10, -14, -22, -12, 0, 0
1486726350.6088068, 81, -49, -85, -10, -15, -14, -18, -16, 0, 0
1486726350.6088436, 81, -40, -95, -26, -11, -12, -19, -13, 0, 0
1486726350.6094377, 93, -32, -86, -20, -9, -17, -8, -10, 0, 0
1486726350.6149864, 97, -44, -127, -28, -13, -11, -18, -14, 0, 0
1486726350.6189978, 85, -61, -114, -16, -10, -6, -14, -18, 0, 0
1486726350.6298885, 83, -55, -89, -8, -18, -11, -14, -9, 0, 0
1486726350.6306245, 84, -49, -93, -27, -15, -3, -5, -10, 0, 0
1486726350.6313477, 86, -51, -113, -18, -16, -13, -17, -11, 0, 0
1486726350.6341336, 82, -38, -107, 1, -12, -12, -17, -17, 0, 0
1486726350.6448145, 90, -49, -90, -6, -7, -7, -18, -21, 0, 0
1486726350.6455646, 78, -49, -85, -7, -18, -16, -15, -14, 0, 0
1486726350.6457963, 78, -47, -98, -26, -11, -12, -19, -13, 0, 0
1486726350.6522732, 85, -37, -108, -6, -21, -14, -6, -17, 0, 0
1486726350.6533017, 81, -46, -105, -9, -9, -12, -14, -15, 0, 0
1486726350.6559153, 79, -45, -87, 10, -7, -6, -14, -18, 0, 0
1486726350.667244, 79, -43, -91, -1, -10, -14, -12, -15, 50, 50
1486726350.667999, 78, -36, -104, -30, -19, -14, -9, -12, 50, 50
1486726350.6692488, 84, -39, -119, -19, -18, -14, -17, -11, 50, 50
1486726350.6823354, 82, -43, -110, -4, -14, -11, -10, -11, 50, 50
1486726350.6832273, 84, -44, -94, 11, -11, -5, -12, -11, 50, 50
1486726350.688224, 82, -44, -99, -13, -18, -12, -14, -20, 50, 50
1486726350.689802, 79, -30, -99, -22, -19, -14, -12, -24, 50, 50
1486726350.6908135, 80, -31, -113, -27, -12, -15, -13, -19, 50, 50
1486726350.693734, 85, -41, -110, 4, -10, -12, -14, -15, 50, 50
1486726350.7047062, 80, -40, -89, -1, -11, -14, -16, -21, 50, 50
1486726350.7054641, 76, -41, -84, -1, -10, -18, -18, -10, 50, 50
1486726350.7063744, 86, -33, -109, -26, -15, -18, -9, -12, 50, 50
1486726350.7207785, 81, -39, -112, -10, -15, -19, -10, -12, 50, 50
1486726350.7208498, 77, -41, -98, 11, 0, -8, -13, -20, 50, 50
1486726350.721898, 76, -46, -79, 8, -9, -14, -17, -17, 50, 50
1486726350.7272341, 73, -40, -90, -21, -13, -14, -7, -12, 50, 50
1486726350.7282724, 82, -33, -101, -8, -13, -7, -9, -9, 50, 50
1486726350.729425, 79, -36, -100, -9, -14, -15, -13, -19, 50, 50
1486726350.742229, 81, -34, -95, -12, -13, -17, -18, -18, 50, 50
1486726350.742635, 82, -36, -81, -8, -13, -6, -8, -8, 50, 50
1486726350.7441509, 79, -36, -88, -22, -15, -17, -8, -10, 50, 50
1486726350.7572272, 69, -29, -102, -24, -18, -19, -11, -17, 50, 50
1486726350.7582502, 76, -31, -104, -3, -15, -13, -12, -14, 50, 50
1486726350.7585237, 77, -40, -96, 7, -10, -11, -13, -20, 50, 50
1486726350.765745, 77, -36, -71, 2, -15, -10, -6, -16, 50, 50
1486726350.7659981, 76, -28, -78, -9, -14, -17, 1, -18, 50, 50
1486726350.7660346, 79, -28, -115, -22, -17, -15, -4, -6, 50, 50
1486726350.7797043, 88, -34, -109, -12, -11, -10, -3, -18, 50, 50
1486726350.7807455, 72, -42, -77, 28, -11, -11, -5, -8, 50, 50
1486726350.7818787, 66, -36, -65, 22, -13, -17, -8, -8, 50, 50
1486726350.794772, 65, -45, -87, 0, -18, -18, -14, -16, 50, 50
1486726350.796069, 75, -34, -108, -19, -13, -16, -9, -17, 50, 50
1486726350.7965133, 77, -32, -104, 3, -8, -15, -14, -17, 50, 50
1486726350.8021667, 75, -39, -84, 7, -11, -16, -14, -22, 50, 50
1486726350.8024158, 73, -41, -69, -2, -9, -13, -11, -20, 50, 50
1486726350.8036628, 73, -30, -81, 1, -7, -17, 1, -18, 50, 50
1486726350.8171656, 72, -25, -89, -14, -10, -14, -4, -16, 50, 50
1486726350.8182604, 73, -36, -92, -2, -11, -13, -12, -13, 50, 50
1486726350.819007, 72, -40, -68, 16, -12, -11, -5, -8, 50, 50
1486726350.8322499, 64, -45, -60, 20, -19, -12, -18, -22, 50, 50
1486726350.8332388, 67, -36, -71, 12, -16, -12, -6, -13, 50, 50
1486726350.8345063, 66, -27, -88, -12, -6, -10, -8, -10, 50, 50
1486726350.8397162, 70, -38, -90, 12, -5, -16, -19, -25, 50, 50
1486726350.8407323, 64, -47, -73, 20, -5, -6, -12, -20, 50, 50
1486726350.841261, 67, -48, -77, 13, -5, -12, -17, -16, 50, 50
1486726350.8547008, 67, -41, -87, -22, -10, -20, -9, -13, 50, 50
1486726350.855441, 64, -47, -84, 1, -24, -21, -15, -14, 50, 50
1486726350.856374, 73, -43, -83, 9, -13, -18, -11, -14, 50, 50
1486726350.8575263, 70, -40, -68, 16, -12, -11, -9, -11, 50, 50
1486726350.8695247, 61, -48, -65, 1, -11, -16, -21, -23, 50, 50
1486726350.8771603, 67, -41, -84, 3, -14, -14, -7, -7, 50, 50
1486726350.8780918, 72, -41, -92, -252, -6, -10, -8, -10, 50, 50
1486726350.8785725, 66, -53, -83, 18, -5, -13, -22, -16, 50, 50
1486726350.8792574, 65, -53, -77, 16, -3, -14, -14, -14, 50, 50
1486726350.8847246, 68, -52, -75, 1, -10, -12, -17, -16, 50, 50
1486726350.8921983, 67, -56, -99, -13, -18, -18, -18, -22, 50, 50
1486726350.8932164, 70, -48, -103, -17, -10, -14, -19, -20, 50, 50
1486726350.8951316, 70, -44, -83, 9, -13, -18, -11, -14, 50, 50
1486726350.9071941, 69, -52, -70, 6, -15, -12, -9, -24, 50, 50
1486726350.9082012, 68, -51, -79, 0, -19, -21, -6, -8, 50, 50
1486726350.9091065, 67, -39, -90, -15, -14, -14, -7, -7, 50, 50
1486726350.9223526, 69, -34, -97, -6, -7, -13, -13, -24, 50, 50
1486726350.9229047, 66, -34, -81, -4, -8, -8, -10, -19, 50, 50
1486726350.926676, 57, -36, -61, 2, -3, -14, -14, -14, 50, 50
1486726350.930567, 55, -38, -76, -10, -16, -16, -6, -24, 50, 50
1486726350.931914, 64, -38, -106, -30, -21, -20, -5, -14, 50, 50
1486726350.932009, 76, -56, -112, -13, -21, -14, -19, -20, 50, 50
1486726350.944571, 52, -61, -76, 0, -12, -10, -12, -21, 50, 50
1486726350.945706, 27, -64, -45, 15, -11, -12, -14, -24, 50, 50
1486726350.9466386, 13, -89, -40, 15, -16, -16, -11, -8, 50, 50
1486726350.9521801, 2, -111, -50, -6, -15, -13, -9, -9, 50, 50
1486726350.9531796, -19, -146, -28, 8, -17, -13, -13, -9, 50, 50
1486726350.95539, -42, -179, 13, 25, -10, -7, -10, -11, 50, 50
1486726350.9672174, -82, -214, 46, 20, -13, -8, -18, -15, 50, 50
1486726350.9675188, -100, -231, 54, 32, -15, -7, -9, -13, 50, 50
1486726350.9712212, -112, -259, 58, 22, -11, -11, -17, -21, 50, 50
1486726350.9820924, -135, -286, 76, 48, -14, -15, -16, -21, 50, 50
1486726350.983096, -150, -317, 111, 51, -12, -10, -10, -16, 50, 50
1486726350.9844706, -174, -319, 134, 63, -17, -10, -5, -15, 50, 50
1486726350.9896817, -186, -327, 133, 57, -21, -15, -3, -10, 50, 50
1486726350.990605, -190, -314, 137, 75, -8, -10, -7, -16, 50, 50
1486726350.9925718, -202, -329, 144, 62, -15, -8, -13, -15, 50, 50
1486726351.004556, -208, -336, 159, 86, -4, -14, -13, -25, 50, 50
1486726351.0053494, -208, -327, 159, 76, -14, -10, -15, -14, 50, 50
1486726351.0056267, -215, -327, 147, 80, -16, -16, -12, -13, 50, 50
1486726351.0195656, -203, -306, 122, 70, -8, -11, -9, -15, 50, 50
1486726351.0205934, -209, -306, 124, 65, -10, -19, -16, -20, 50, 50
1486726351.0211349, -211, -313, 132, 77, -14, -18, -11, -13, 50, 50
1486726351.0271952, -216, -299, 141, 89, -5, -12, -17, -18, 50, 50
1486726351.0280774, -208, -288, 107, 64, -13, -10, -1, -15, 50, 50
1486726351.0283475, -210, -284, 97, 66, -21, -10, -14, -12, 50, 50
1486726351.04216, -201, -287, 109, 63, -12, -14, -20, -23, 50, 50
1486726351.0430703, -219, -304, 124, 87, -13, -17, -21, -12, 50, 50
1486726351.0435617, -219, -277, 131, 72, -13, -10, -15, -14, 50, 50
1486726351.0577984, -222, -281, 109, 71, -10, -11, -12, -21, 50, 50
1486726351.0581458, -213, -282, 88, 72, -11, -10, -9, -21, 50, 50
1486726351.0587096, -213, -282, 109, 83, -15, -20, -13, -20, 50, 50
1486726351.064885, -216, -272, 131, 81, -13, -11, -12, -24, 50, 50
1486726351.072196, -219, -281, 115, 84, -10, -19, -16, -15, 50, 50
1486726351.072585, -206, -273, 87, 63, -12, -14, -13, -17, 50, 50
1486726351.0795834, -213, -282, 79, 63, -10, -11, -12, -15, 50, 50
1486726351.080007, -212, -286, 89, 60, -12, -14, -12, -12, 50, 50
1486726351.081772, -214, -281, 116, 78, -8, -15, -12, -18, 50, 50
1486726351.0944917, -207, -276, 105, 76, -13, -15, -15, -16, 50, 50
1486726351.0955064, -217, -269, 85, 59, -14, -19, -13, -11, 50, 50
1486726351.0962956, -211, -267, 72, 69, -12, -18, -10, -10, 50, 50
1486726351.1020772, -217, -268, 101, 77, -10, -14, -13, -18, 50, 50
1486726351.1028895, -219, -261, 115, 80, -10, -14, -14, -17, 50, 50
1486726351.1033309, -221, -259, 102, 65, -15, -17, -12, -15, 50, 50
1486726351.105049, -211, -273, 87, 63, -12, -14, -13, -17, 50, 50
1486726351.1170287, -210, -253, 77, 57, -9, -15, -16, -17, 50, 50
1486726351.1181448, -210, -261, 92, 85, 0, -9, -13, -12, 50, 50
1486726351.11846, -206, -264, 116, 78, -8, -15, -12, -18, 50, 50
1486726351.1331394, -215, -258, 90, 70, -17, -21, -10, -13, 50, 50
1486726351.1341977, -215, -257, 68, 70, -9, -11, -6, -4, 50, 50
1486726351.1342688, -209, -253, 72, 69, -12, -18, -10, -10, 50, 50
1486726351.1395428, -204, -253, 91, 86, -2, -18, -13, -15, 50, 50
1486726351.1402128, -203, -274, 92, 77, -11, -10, -5, -13, 50, 50
1486726351.1406705, -202, -254, 74, 71, -15, -17, -12, -15, 50, 50
1486726351.1545722, -194, -246, 67, 51, -5, -13, -9, -13, 50, 50
1486726351.1554875, -198, -262, 70, 57, -4, -13, -19, -19, 50, 50
1486726351.1582575, -201, -260, 91, 64, 249, -9, -13, -12, 50, 50
1486726351.1695235, -204, -266, 87, 79, -8, -11, -10, -20, 50, 50
1486726351.170328, -198, -264, 73, 62, -10, -10, -10, -16, 50, 50
1486726351.170678, -192, -254, 62, 38, -5, -11, -6, -4, 50, 50
1486726351.176977, -202, -267, 61, 56, -3, -8, -11, -9, 50, 50
1486726351.1775753, -196, -268, 77, 62, -9, -13, -11, -20, 50, 50
1486726351.1779802, -205, -267, 83, 74, -12, -17, -5, -13, 50, 50
1486726351.1920228, -201, -254, 68, 56, -11, -14, -9, -17, 50, 50
1486726351.192979, -195, -245, 56, 48, -10, -9, -12, -15, 50, 50
1486726351.1948903, -205, -251, 69, 52, -9, -9, -11, -12, 50, 50
1486726351.207, -205, -259, 75, 75, -6, -17, -10, -7, 50, 50
1486726351.2080107, -210, -261, 84, 59, -9, -12, -11, -16, 50, 50
1486726351.210665, -201, -253, 63, 55, -12, -10, -10, -16, 50, 50
1486726351.2153792, -207, -247, 62, 55, -20, -19, -14, -19, 50, 50
1486726351.2201655, -199, -249, 68, 73, -12, -12, -9, -17, 50, 50
1486726351.2202384, -203, -260, 78, 64, -10, -8, -11, -20, 50, 50
1486726351.2294915, -200, -249, 73, 58, -14, -14, -2, -19, 50, 50
1486726351.229739, -197, -245, 54, 49, -17, -14, -3, -11, 50, 50
1486726351.2310295, -200, -242, 48, 60, -15, -15, -12, -15, 50, 50
1486726351.2444406, -194, -251, 63, 64, -16, -12, -11, -13, 50, 50
1486726351.2454576, -203, -249, 83, 77, -11, -8, -15, -13, 50, 50
1486726351.246512, -203, -254, 66, 57, -17, -10, -11, -16, 50, 50
1486726351.251968, -197, -243, 56, 45, -20, -18, -15, -20, 50, 50
1486726351.252917, -191, -247, 42, 56, -11, -17, -16, -21, 50, 50
1486726351.2536886, -199, -255, 65, 56, -9, -10, -18, -13, 50, 50
1486726351.2669837, -196, -256, 80, 78, -13, -10, -12, -18, 50, 50
1486726351.2679558, -191, -243, 72, 54, -17, -12, -15, -17, 50, 50
1486726351.268504, -192, -239, 59, 45, -18, -14, -3, -11, 50, 50
1486726351.2819827, -186, -240, 48, 62, -13, -16, -14, -13, 50, 50
1486726351.2829015, -194, -254, 69, 61, -10, -14, -9, -13, 50, 50
1486726351.2837567, -187, -248, 76, 64, -4, -8, -15, -13, 50, 50
1486726351.2896588, -192, -243, 71, 52, -11, -16, -12, -21, 50, 50
1486726351.290288, -187, -230, 53, 43, -13, -11, -11, -20, 50, 50
1486726351.2947617, -186, -225, 61, 43, -10, -16, -16, -21, 50, 50
1486726351.305319, -190, -233, 69, 61, -7, -8, -7, -14, 50, 50
1486726351.3122613, -188, -233, 76, 74, -11, -6, -7, -15, 50, 50
1486726351.3142374, -190, -227, 69, 53, -11, -16, -14, -23, 50, 50
1486726351.319531, -185, -226, 48, 49, -9, -17, -15, -19, 50, 50
1486726351.3204954, -187, -225, 53, 63, -7, -8, -12, -22, 50, 50
1486726351.3219128, -185, -234, 62, 76, -5, -9, -10, -11, 50, 50
1486726351.3270528, -175, -232, 62, 51, -12, -12, -15, -21, 50, 50
1486726351.3276148, -163, -220, 47, 44, -6, -8, -11, -21, 50, 50
1486726351.3285782, -181, -224, 40, 54, -9, -13, -15, -17, 50, 50
1486726351.3300831, -186, -225, 61, 43, -10, -16, -14, -10, 50, 50
1486726351.3431256, -162, -222, 45, 66, -8, -9, -11, -7, 50, 50
1486726351.3432195, -175, -221, 58, 56, -8, -10, -11, -20, 50, 50
1486726351.3452902, -190, -227, 69, 53, -11, -16, -14, -23, 50, 50
1486726351.3570242, -179, -226, 46, 47, -9, -6, -7, -19, 50, 50
1486726351.3572788, -168, -228, 43, 52, -13, -13, -8, -11, 50, 50
1486726351.3631704, -169, -227, 62, 76, -5, -9, -10, -11, 50, 50
1486726351.364532, -177, -226, 63, 56, -13, -15, -16, -25, 50, 50
1486726351.3654969, -181, -226, 46, 43, -16, -11, -9, -20, 50, 50
1486726351.367389, -182, -220, 35, 54, -9, -13, -15, -17, 50, 50
1486726351.3795364, -190, -218, 55, 58, -10, -11, -10, -13, 50, 50
1486726351.3804832, -178, -224, 63, 71, -10, -13, -3, -7, 50, 50
1486726351.3809314, -178, -217, 67, 77, -6, -10, -11, -20, 50, 50
1486726351.3945243, -169, -209, 43, 50, -17, -16, -5, -23, 50, 50
1486726351.395447, -163, -207, 32, 39, -19, -12, -12, -10, 50, 50
1486726351.3974004, -180, -220, 40, 55, -8, -11, -11, -14, 50, 50
1486726351.4019666, -168, -226, 49, 65, -10, -11, -11, -24, 50, 50
1486726351.402939, -170, -220, 60, 57, -9, -9, -14, -24, 50, 50
1486726351.4039438, -174, -203, 51, 59, -16, -11, -9, -20, 50, 50
1486726351.4179966, -171, -217, 41, 44, -6, -12, -10, -14, 50, 50
1486726351.4208333, -171, -211, 59, 65, -9, -16, -10, -12, 50, 50
1486726351.4209201, -176, -212, 67, 78, -15, -13, -3, -7, 50, 50
1486726351.432013, -164, -208, 53, 56, -21, -15, -6, -20, 50, 50
1486726351.432979, -177, -198, 58, 62, -22, -5, -4, -13, 50, 50
1486726351.4351172, -178, -208, 47, 63, -9, -10, -12, -10, 50, 50
1486726351.4479856, -177, -220, 51, 70, -13, -16, -5, -10, 50, 50
1486726351.4480562, -177, -217, 82, 76, -9, -22, -15, -22, 50, 50
1486726351.4524734, -170, -203, 66, 69, -21, -14, -10, -9, 50, 50
1486726351.454544, -172, -202, 39, 55, -22, -14, -10, -18, 50, 50
1486726351.455489, -181, -210, 41, 35, -20, -12, -17, -16, 50, 50
1486726351.4557524, -187, -206, 65, 62, -16, -16, -10, -12, 50, 50
1486726351.4694438, -178, -202, 79, 62, -16, -10, -9, -11, 50, 50
1486726351.4704537, -176, -203, 64, 43, -20, -9, -9, -16, 50, 50
1486726351.4716513, -179, -198, 51, 31, -15, -14, -4, -13, 50, 50
1486726351.477021, -171, -204, 46, 45, -10, -6, -8, -17, 50, 50
1486726351.4777083, -174, -208, 68, 72, -20, -6, -8, -14, 50, 50
1486726351.4779181, -177, -212, 73, 52, -13, -11, -20, -22, 50, 50
1486726351.4918284, -176, -198, 66, 63, -12, -14, -13, -18, 50, 50
1486726351.4995546, -173, -192, 49, 43, -13, -15, -11, -8, 50, 50
1486726351.5009243, -169, -193, 49, 54, -20, -12, -18, -20, 50, 50
1486726351.5069923, -172, -203, 69, 60, -15, -11, -7, -14, 50, 50
1486726351.5078979, -167, -191, 73, 68, -15, -8, -12, -18, 50, 50
1486726351.5101798, -172, -188, 59, 47, -17, -12, -15, -12, 50, 50
1486726351.514377, -166, -194, 31, 37, -13, -18, -8, -16, 50, 50
1486726351.5154507, -164, -198, 42, 48, -13, -7, -10, -10, 50, 50
1486726351.51718, -167, -193, 66, 64, -9, -13, -18, -14, 50, 50
1486726351.5294278, -167, -189, 71, 68, -14, -14, -14, -17, 50, 50
1486726351.5304387, -171, -180, 61, 40, -22, -15, -21, -20, 50, 50
1486726351.5315208, -165, -181, 42, 41, -14, -15, -18, -8, 50, 50
1486726351.5443583, -167, -184, 46, 65, -11, -16, -13, -24, 50, 50
1486726351.545407, -159, -184, 65, 75, -9, -12, -3, -10, 50, 50
1486726351.5467029, -161, -184, 64, 58, -9, -15, -14, -15, 50, 50
1486726351.5518548, -168, -189, 44, 43, -20, -14, -16, -19, 50, 50
1486726351.5529385, -162, -180, 36, 46, -20, -14, -6, -9, 50, 50
1486726351.5548391, -162, -192, 53, 52, -18, -13, -21, -15, 50, 50
1486726351.5701096, -166, -187, 65, 59, -12, -15, -11, -14, 50, 1390
1486726351.571177, -159, -180, 64, 52, -12, -11, -10, -12, 50, 1390
1486726351.5712774, -162, -176, 53, 65, -8, -14, -5, -18, 50, 1390
1486726351.571303, -165, -181, 42, 41, -14, -15, -18, -28, 50, 1390
1486726351.5818243, -160, -182, 48, 64, -7, -11, -16, -20, 50, 1390
1486726351.583315, -163, -192, 67, 63, -10, -8, -3, -10, 50, 1390
1486726351.589372, -169, -193, 67, 48, -17, -12, -5, -11, 50, 1390
1486726351.590027, -164, -187, 41, 51, -16, -8, -8, -15, 50, 1390
1486726351.591747, -160, -189, 37, 56, -10, -12, -10, -20, 50, 1390
1486726351.6044433, -171, -198, 52, 63, -13, -6, -8, -19, 50, 1390
1486726351.6047497, -164, -204, 70, 65, -9, -4, -11, -8, 50, 1390
1486726351.6058865, -173, -191, 60, 51, -14, -13, -16, -15, 50, 1390
1486726351.6109667, -167, -195, 53, 65, -8, -14, -5, -18, 50, 1390
1486726351.6193218, -162, -186, 42, 54, -8, -10, -6, -22, 50, 1390
1486726351.6201172, -153, -192, 45, 51, -11, -15, -17, -19, 50, 1390
1486726351.6215162, -148, -185, 54, 54, -10, -8, -8, -9, 50, 1390
1486726351.627761, -160, -192, 52, 38, -12, -9, -6, -19, 50, 1390
1486726351.631661, -152, -192, 30, 23, -20, -11, -8, -23, 50, 1390
1486726351.6317308, -155, -188, 33, 35, -17, -12, -10, -20, 50, 1390
1486726351.641825, -160, -195, 34, 57, -2, -11, -11, -18, 50, 1390
1486726351.6420972, -164, -191, 54, 50, -12, -14, -12, -18, 50, 1390
1486726351.642925, -155, -185, 38, 36, -11, -15, -16, -15, 50, 1390
1486726351.6567633, -161, -183, 22, 32, -15, -15, -10, -17, 50, 1390
1486726351.6574147, -146, -189, 28, 58, -21, -16, -21, -20, 50, 1390
1486726351.658401, -158, -193, 47, 61, -9, -13, -19, -17, 50, 1390
1486726351.6643617, -154, -179, 63, 48, -16, -19, -12, -20, 50, 1390
1486726351.6652532, -158, -176, 44, 35, -24, -13, -10, -23, 50, 1390
1486726351.6689973, -161, -175, 24, 49, -17, -8, -12, -12, 50, 1390
1486726351.6792707, -156, -190, 18, 36, -18, -16, -15, -15, 50, 1390
1486726351.680297, -154, -188, 43, 38, -20, -17, -12, -14, 50, 1390
1486726351.6825264, -149, -190, 50, 52, -11, -14, -12, -18, 50, 1390
1486726351.694261, -157, -189, 44, 41, -15, -12, -6, -18, 50, 1390
1486726351.6952386, -152, -193, 15, 45, -16, -11, -1, -16, 50, 1390
1486726351.6964262, -149, -191, 24, 30, -14, -17, -21, -20, 50, 1390
1486726351.7017896, -143, -194, 32, 47, -12, -9, -7, -17, 50, 1390
1486726351.702735, -136, -183, 42, 44, -14, -18, -16, -23, 50, 1390
1486726351.7034292, -160, -178, 36, 34, -16, -14, -10, -23, 50, 1390
1486726351.7171493, -149, -186, 21, 49, -13, -11, -10, -20, 50, 1390
1486726351.717517, -156, -190, 31, 52, -14, -6, -6, -12, 50, 1390
1486726351.718898, -148, -190, 46, 69, -11, -10, -9, -14, 50, 1390
1486726351.731777, -146, -181, 54, 60, -12, -9, -13, -15, 50, 1390
1486726351.7327492, -142, -174, 37, 39, -18, -11, -15, -19, 50, 1390
1486726351.7375715, -139, -169, 30, 46, -16, -13, -13, -22, 50, 1390
1486726351.7392328, -146, -184, 36, 59, -11, -3, -15, -13, 50, 1390
1486726351.741297, -143, -186, 49, 56, -7, -2, -14, -22, 50, 1390
1486726351.748154, -146, -178, 44, 45, -16, -10, -14, -23, 50, 1390
1486726351.754263, -134, -179, 21, 46, -20, -17, -12, -19, 50, 1390
1486726351.7552118, -137, -175, 10, 27, -16, -16, -12, -19, 50, 1390
1486726351.7556098, -131, -180, 23, 37, -9, -6, -6, -12, 50, 1390
1486726351.7692242, -135, -182, 43, 56, -14, -1, -6, -17, 50, 1390
1486726351.770227, -135, -178, 39, 54, -18, -13, -8, -15, 50, 1390
1486726351.773848, -148, -171, 26, 28, -13, -10, -11, -19, 50, 1390
1486726351.7767541, -128, -179, 11, 52, -12, -10, -10, -9, 50, 1390
1486726351.7776744, -135, -185, 27, 53, -11, -13, -9, -13, 50, 1390
1486726351.779274, -127, -176, 44, 64, -13, -8, -8, -19, 50, 1390
1486726351.7927635, -138, -178, 38, 44, -17, -13, -14, -14, 50, 1390
1486726351.794208, -137, -170, 9, 34, -16, -9, -19, -10, 50, 1390
1486726351.7942789, -136, -174, 15, 29, -18, -14, -19, -19, 50, 1390
1486726351.8067458, -136, -171, 36, 53, -7, -11, -20, -21, 50, 1390
1486726351.8073623, -130, -174, 47, 46, -19, -15, -13, -18, 50, 1390
1486726351.8099241, -140, -170, 40, 51, -19, -18, -13, -14, 50, 1390
1486726351.8142245, -137, -162, 20, 41, -19, -17, -19, -24, 50, 1390
1486726351.815182, -127, -148, 18, 46, -13, -8, -16, -26, 50, 1390
1486726351.8164325, -126, -170, 40, 66, -15, -15, -14, -18, 50, 1390
1486726351.8292186, -146, -166, 64, 50, -15, -8, -10, -13, 50, 1390
1486726351.830151, -152, -131, 37, 40, -22, -11, -11, -17, 50, 1390
1486726351.8304176, -151, -102, 23, 37, -9, -13, -7, -15, 50, 1390
1486726351.8309278, -159, -86, 15, 29, -18, -14, -19, -19, 50, 1390
1486726351.8444192, -154, -73, 53, 53, -9, -7, -9, -16, 50, 1390
1486726351.847929, -168, -48, 79, 71, -20, -4, -3, -12, 50, 1390
1486726351.8533812, -178, -20, 76, 64, -17, -15, -14, -24, 50, 1390
1486726351.859262, -170, -1, 52, 47, -20, -11, -13, -21, 50, 1390
1486726351.8601563, -148, 15, 35, 44, -17, -17, -20, -27, 50, 1390
1486726351.8614187, -126, -170, 40, 66, -15, -15, -14, -18, 50, 1390
1486726351.8675654, -129, 55, 72, 60, -15, -14, -19, -23, 50, 1390
1486726351.8683496, -129, 76, 63, 45, -18, -23, -17, -14, 50, 1390
1486726351.8684206, -126, 92, 52, 52, -9, -13, -7, -15, 50, 1390
1486726351.881705, -121, 101, 65, 59, -15, -6, -7, -14, 50, 1390
1486726351.882531, -125, 100, 86, 86, -13, -11, -15, -15, 50, 1390
1486726351.8848853, -124, 110, 94, 85, -20, -4, -3, -12, 50, 1390
1486726351.8891463, -114, 118, 80, 82, -12, -15, -14, -24, 50, 1390
1486726351.889862, -112, 113, 61, 78, -15, -19, -14, -18, 50, 1390
1486726351.8908477, -116, 107, 71, 70, -16, -17, -20, -27, 50, 1390
1486726351.9042232, -111, 108, 95, 80, -9, -20, -17, -19, 50, 1390
1486726351.9051392, -123, 104, 95, 94, -13, -16, -16, -19, 50, 1390
1486726351.906067, -119, 106, 74, 76, -22, -20, -17, -14, 50, 1390
1486726351.9219513, -110, 107, 62, 65, -23, -12, -18, -16, 50, 1390
1486726351.9266825, -115, 103, 71, 91, -14, -14, -19, -18, 50, 1390
1486726351.9274967, -113, 105, 89, 104, -13, -16, -18, -18, 50, 1390
1486726351.9281995, -114, 107, 88, 88, -23, -18, -16, -18, 50, 1390
1486726351.930541, -119, 123, 76, 88, -16, -12, -8, -22, 50, 1390
1486726351.9379735, -116, 117, 66, 93, -13, -19, -14, -18, 50, 1390
1486726351.941642, -112, 111, 79, 86, -5, -9, -19, -15, 50, 1390
1486726351.942399, -113, 105, 90, 110, -5, -13, -18, -9, 50, 1390
1486726351.9468975, -117, 110, 81, 92, -8, -13, -16, -19, 50, 1390
1486726351.9567034, -106, 112, 57, 81, -16, -14, -12, -10, 50, 1390
1486726351.9572926, -116, 105, 50, 85, -8, -11, -14, -15, 50, 1390
1486726351.9587328, -107, 106, 66, 96, -14, -16, -10, -18, 50, 1390
1486726351.9641361, -105, 109, 81, 97, -19, -19, -12, -8, 50, 1390
1486726351.9651392, -107, 110, 76, 85, -7, -11, -8, -15, 50, 1390
1486726351.9667013, -112, 112, 51, 72, -16, -10, -8, -8, 50, 1390
1486726351.9796126, -99, 111, 48, 70, -12, -9, -16, -14, 50, 1390
1486726351.9798932, -104, 110, 72, 93, -9, -7, -14, -13, 50, 1390
1486726351.9811335, -110, 113, 71, 85, -16, -16, -18, -9, 50, 1390
1486726351.9942088, -109, 111, 66, 92, -14, -14, -4, -16, 50, 1390
1486726351.9950323, -113, 112, 50, 92, -11, -21, -2, -17, 50, 1390
1486726351.9956143, -99, 112, 45, 79, -13, -21, -8, -6, 50, 1390
1486726352.0027719, -98, 113, 76, 112, -5, -2, -7, -18, 50, 1390
1486726352.0046692, -113, 117, 89, 109, -10, -11, -12, -16, 50, 1390
1486726352.0047414, -116, 125, 86, 89, -18, -12, -6, -11, 50, 1390
1486726352.0166926, -116, 137, 73, 68, -14, -16, -18, -15, 50, 1390
1486726352.0169585, -118, 138, 80, 94, -17, -8, -12, -8, 50, 1390
1486726352.021454, -115, 126, 90, 114, -2, -11, -14, -13, 50, 1390
1486726352.0327523, -117, 126, 103, 112, -14, -15, -8, -11, 50, 1390
1486726352.03919, -112, 138, 87, 102, -13, -6, -2, -10, 50, 1390
1486726352.0400147, -114, 141, 77, 93, -12, -13, -2, -17, 50, 1390
1486726352.0432405, -111, 136, 82, 109, -11, -13, -6, -22, 50, 1390
1486726352.0468042, -112, 129, 106, 133, -14, -16, -13, -15, 50, 1390
1486726352.0483553, -109, 129, 99, 116, -15, -15, -16, -16, 50, 1390
1486726352.054503, -102, 134, 78, 93, -20, -16, -4, -16, 50, 1390
1486726352.0555036, -100, 144, 64, 88, -15, -14, -6, -15, 50, 1390
1486726352.0555422, -102, 134, 76, 112, -12, -13, -14, -24, 50, 1390
1486726352.0565653, -115, 126, 90, 114, -2, -11, -5, -9, 50, 1390
1486726352.069186, -100, 129, 88, 95, -7, -10, -12, -19, 50, 1390
1486726352.0701907, -91, 146, 71, 100, -19, -17, -11, -17, 50, 1390
1486726352.0718582, -91, 142, 77, 93, -12, -13, -9, -20, 50, 1390
1486726352.0768888, -94, 139, 68, 80, -12, -13, -13, -9, 50, 1390
1486726352.0774894, -101, 133, 93, 114, -10, -14, -18, -17, 50, 1390
1486726352.091647, -107, 132, 92, 107, -7, -10, -4, -12, 50, 1390
1486726352.0925055, -109, 136, 75, 82, -12, -12, -13, -13, 50, 1390
1486726352.0929987, -105, 137, 58, 74, -14, -13, -6, -17, 50, 1390
1486726352.093285, -102, 134, 76, 112, -12, -13, -14, -24, 50, 1390
1486726352.1066499, -106, 125, 93, 119, -7, -16, -14, -22, 50, 1390
1486726352.1076021, -103, 132, 84, 95, -15, -21, -20, -9, 50, 1390
1486726352.1112077, -110, 141, 70, 96, -12, -17, -11, -17, 50, 1390
1486726352.1141355, -98, 143, 60, 90, -17, -15, -12, -12, 50, 1390
1486726352.115171, -92, 137, 70, 91, -6, -15, -11, -15, 50, 1390
1486726352.1184492, -95, 131, 84, 119, -14, -14, -18, -17, 50, 1390
1486726352.129099, -97, 132, 80, 86, -20, -12, -12, -14, 50, 1390
1486726352.1301074, -100, 132, 57, 77, -12, -16, -7, -11, 50, 1390
1486726352.13056, -89, 129, 49, 94, -7, -11, -6, -17, 50, 1390
1486726352.1448724, -97, 123, 67, 101, -8, -9, -12, -16, 50, 1390
1486726352.1469643, -101, 120, 76, 99, -15, -13, -14, -17, 50, 1390
1486726352.147001, -98, 126, 71, 96, -19, -11, -5, -19, 50, 1390
1486726352.1516223, -105, 135, 67, 89, -18, -15, -10, -15, 50, 1390
1486726352.1522408, -101, 135, 59, 103, -16, -19, -6, -13, 50, 1390
1486726352.154762, -91, 126, 82, 119, -15, -15, -11, -15, 50, 1390
1486726352.166777, -100, 121, 97, 105, -13, -11, -9, -16, 50, 1390
1486726352.1676903, -101, 125, 80, 81, -16, -18, -5, -10, 50, 1390
1486726352.1705236, -91, 132, 55, 78, -14, -12, -6, -10, 50, 1390
1486726352.1891055, -89, 124, 52, 73, -15, -20, -12, -5, 50, 1390
1486726352.189757, -83, 113, 65, 86, -10, -21, -13, -6, 50, 1390
1486726352.1904879, -89, 128, 75, 106, -4, -8, -16, -17, 50, 1390
1486726352.1914077, -87, 134, 64, 72, -17, -19, -13, -10, 50, 1390
1486726352.1967978, -99, 132, 58, 85, -16, -18, -11, -20, 50, 1390
1486726352.2011044, -92, 130, 62, 77, -16, -19, -6, -13, 50, 1390
1486726352.204067, -95, 121, 78, 91, -8, -10, -11, -20, 50, 1390
1486726352.2050734, -98, 120, 79, 90, -7, -9, -12, -20, 50, 1390
1486726352.2067714, -95, 124, 58, 75, -19, -18, -5, -10, 50, 1390
1486726352.2190595, -92, 126, 40, 61, -16, -19, -11, -21, 50, 1390
1486726352.2201464, -87, 124, 44, 73, -6, -10, -9, -16, 50, 1390
1486726352.222772, -95, 116, 69, 89, -17, -10, -13, -6, 50, 1390
1486726352.2266965, -90, 118, 75, 92, -20, -14, -13, -13, 50, 1390
1486726352.2277465, -89, 122, 61, 89, -15, -14, -9, -17, 50, 1390
1486726352.2280538, -89, 125, 48, 73, -19, -14, -6, -20, 50, 1390
1486726352.2416131, -83, 119, 51, 87, -10, -8, -13, -9, 50, 1390
1486726352.242637, -84, 121, 65, 114, -6, -7, -9, -9, 50, 1390
1486726352.2445676, -88, 122, 67, 78, -13, -11, -16, -10, 50, 1390
1486726352.2564993, -89, 123, 41, 54, -17, -12, -11, -12, 50, 1390
1486726352.2572858, -83, 117, 27, 75, -16, -16, -11, -15, 50, 1390
1486726352.2579138, -89, 115, 47, 74, -12, -13, -12, -13, 50, 1390
1486726352.2650757, -90, 112, 62, 87, -15, -12, -10, -15, 50, 1390
1486726352.265966, -91, 114, 63, 86, -12, -14, -13, -21, 50, 1390
1486726352.2660356, -80, 130, 46, 87, -10, -4, 0, -10, 50, 1390
1486726352.2790556, -85, 128, 45, 74, -9, -16, -12, -12, 50, 1390
1486726352.280094, -93, 118, 67, 102, -4, -14, -17, -5, 50, 1390
1486726352.2828076, -95, 117, 81, 108, -8, -9, -9, -9, 50, 1390
1486726352.294145, -92, 115, 67, 97, -13, -16, -16, -12, 50, 1390
1486726352.2948968, -87, 123, 43, 72, -18, -13, -10, -20, 50, 1390
1486726352.2959592, -87, 115, 40, 85, -14, -16, -11, -15, 50, 1390
1486726352.3015878, -90, 104, 51, 89, -9, -11, -14, -15, 50, 1390
1486726352.302331, -90, 106, 70, 90, -11, -11, -10, -15, 50, 1390
1486726352.3039532, -92, 126, 72, 106, -15, -15, -8, -21, 50, 1390
1486726352.3165798, -94, 123, 55, 71, -13, -12, -9, -6, 50, 1390
1486726352.317676, -89, 123, 48, 75, -21, -13, -5, -6, 50, 1390
1486726352.3179586, -96, 108, 54, 75, -11, -8, -4, -10, 50, 1390
1486726352.3317332, -84, 108, 72, 91, -14, -11, -11, -11, 50, 1390
1486726352.3321388, -85, 115, 57, 94, -15, -14, -11, -13, 50, 1390
1486726352.3332455, -88, 117, 38, 74, -19, -13, -9, -14, 50, 1390
1486726352.3339765, -87, 115, 40, 85, -14, -16, -15, -14, 50, 1390
1486726352.3400853, -88, 103, 57, 92, -7, -16, -12, -12, 50, 1390
1486726352.340923, -96, 105, 73, 86, -13, -10, -4, -13, 50, 1390
1486726352.341004, -90, 118, 72, 106, -15, -15, -8, -8, 50, 1390
1486726352.3540602, -89, 115, 41, 75, -14, -14, -14, -11, 50, 1390
1486726352.3550515, -85, 118, 47, 73, -11, -10, -8, -9, 50, 1390
1486726352.3557732, -85, 112, 57, 75, -11, -8, -4, -10, 50, 1390
1486726352.3692691, -89, 112, 69, 85, -14, -15, -11, -11, 50, 1390
1486726352.3697677, -85, 113, 51, 80, -19, -17, -15, -15, 50, 1390
1486726352.3700492, -76, 114, 38, 50, -17, -16, -9, -14, 50, 1390
1486726352.3767745, -85, 109, 36, 77, -12, -10, -9, -8, 50, 1390
1486726352.3773236, -76, 110, 52, 69, -15, -7, -10, -10, 50, 1390
1486726352.3780894, -78, 111, 63, 77, -23, -8, -11, -13, 50, 1390
1486726352.3918397, -82, 115, 45, 77, -16, -12, -11, -14, 50, 1390
1486726352.392311, -72, 117, 36, 79, -12, -13, -19, -17, 50, 1390
1486726352.393701, -81, 106, 39, 76, -9, -11, -15, -5, 50, 1390
1486726352.406519, -87, 102, 58, 81, -5, -11, -15, -16, 50, 1390
1486726352.4068222, -82, 99, 55, 71, -14, -14, -15, -18, 50, 1390
1486726352.4081311, -69, 114, 31, 48, -15, -17, -15, -15, 50, 1390
1486726352.4140372, -76, 115, 20, 65, -20, -19, -14, -16, 50, 1390
1486726352.4150615, -75, 110, 36, 76, -9, -11, -8, -13, 50, 1390
1486726352.4157653, -76, 110, 51, 76, -13, -21, -10, -10, 50, 1390
1486726352.4290166, -81, 109, 53, 74, -17, -14, -11, -14, 50, 1390
1486726352.4299855, -75, 116, 38, 74, -15, -10, -12, -5, 50, 1390
1486726352.4322443, -79, 117, 34, 75, -14, -18, -11, -18, 50, 1390
1486726352.4440796, -73, 111, 44, 85, -9, -6, -5, -12, 1280, 720
1486726352.4447644, -75, 105, 57, 91, -14, -10, -12, -15, 1280, 720
1486726352.448455, -76, 115, 53, 87, -25, -14, -15, -18, 1280, 720
1486726352.4541574, -77, 122, 38, 56, -21, -14, -10, -17, 1280, 720
1486726352.4591928, -75, 109, 24, 58, -16, -9, -12, -14, 1280, 720
1486726352.459524, -64, 104, 41, 89, -17, -9, -8, -13, 1280, 720
1486726352.4665263, -69, 101, 52, 83, -9, -4, -10, -16, 1280, 720
1486726352.4675653, -71, 104, 49, 78, -17, -15, -15, -20, 1280, 720
1486726352.470011, -71, 109, 37, 53, -21, -20, -11, -5, 1280, 720
1486726352.4813044, -58, 108, 18, 59, -19, -16, -12, -18, 1280, 720
1486726352.488689, -68, 107, 46, 67, -12, -9, -10, -12, 1280, 720
1486726352.489597, -80, 108, 71, 74, -9, -6, -13, -15, 1280, 720
1486726352.4903722, -80, 108, 65, 92, -12, -6, -10, -19, 1280, 720
1486726352.4909039, -68, 105, 32, 55, -17, -12, -11, -17, 1280, 720
1486726352.4987388, -78, 97, 41, 81, -14, -15, -19, -16, 1280, 720
1486726352.5039396, -76, 91, 56, 86, -5, -11, -10, -14, 1280, 720
1486726352.5042007, -72, 98, 64, 83, -10, -11, -11, -2, 1280, 720
1486726352.5048172, -70, 105, 56, 72, -16, -15, -15, -20, 1280, 720
1486726352.5199842, -69, 111, 35, 62, -14, -9, -15, -17, 1280, 720
1486726352.5210333, -70, 103, 38, 73, -11, -10, -13, -13, 1280, 720
1486726352.5211718, -76, 99, 64, 85, -7, -9, -10, -12, 1280, 720
1486726352.5264816, -85, 91, 76, 98, -15, -19, -24, -15, 1280, 720
1486726352.527481, -86, 96, 50, 65, -14, -18, -11, -18, 1280, 720
1486726352.5305681, -74, 100, 38, 61, -20, -21, -11, -17, 1280, 720
1486726352.5414386, -81, 100, 41, 57, -10, -11, -16, -15, 1280, 720
1486726352.5425098, -74, 95, 55, 83, -10, -8, -13, -17, 1280, 720
1486726352.542921, -70, 103, 66, 73, -11, -12, -14, -15, 1280, 720
1486726352.5566633, -68, 111, 51, 50, -21, -14, -6, -6, 1280, 720
1486726352.5580761, -71, 117, 36, 60, -16, -16, -12, -13, 1280, 720
1486726352.559118, -75, 113, 53, 61, -15, -9, -12, -5, 1280, 720
1486726352.5591903, -72, 99, 64, 85, -7, -7, -16, -12, 1280, 720
1486726352.5643296, -82, 107, 69, 80, -9, -13, -9, -14, 1280, 720
1486726352.5669012, -78, 109, 49, 64, -16, -11, -9, -18, 1280, 720
1486726352.578933, -72, 107, 38, 68, -15, -13, -11, -9, 1280, 720
1486726352.5800002, -67, 96, 36, 76, -9, -6, -17, -23, 1280, 720
1486726352.5811086, -62, 93, 59, 75, -3, -5, -13, -22, 1280, 720
1486726352.5939338, -69, 112, 71, 90, -9, -9, -8, -19, 1280, 720
1486726352.5947742, -78, 117, 55, 68, -15, -13, -10, -15, 1280, 720
1486726352.5953076, -76, 113, 46, 63, -15, -7, -9, -3, 1280, 720
1486726352.596596, -71, 113, 53, 61, -15, -9, -12, -5, 1280, 720
1486726352.6016972, -69, 97, 68, 71, -13, -15, -8, -13, 1280, 720
1486726352.6021268, -72, 94, 62, 75, -14, -13, -6, -22, 1280, 720
1486726352.6024795, -68, 98, 40, 64, -16, -11, -9, -9, 1280, 720
1486726352.6164262, -66, 96, 35, 59, -12, -14, -13, -20, 1280, 720
1486726352.617241, -66, 89, 45, 58, -10, -4, -9, -12, 1280, 720
1486726352.6180806, -73, 92, 70, 63, -3, -5, -13, -22, 1280, 720
1486726352.6314034, -71, 99, 69, 67, -18, -21, -15, -14, 1280, 720
1486726352.6326842, -67, 106, 48, 58, -19, -12, -12, -8, 1280, 720
1486726352.6372104, -64, 106, 39, 62, -11, -11, -12, -3, 1280, 720
1486726352.639005, -74, 89, 54, 75, -12, -18, -19, -10, 1280, 720
1486726352.6399117, -65, 92, 63, 86, -10, -14, -6, -10, 1280, 720
1486726352.6413755, -70, 98, 47, 74, -11, -18, -17, -9, 1280, 720
1486726352.6539023, -58, 100, 29, 61, -12, -16, -14, -20, 1280, 720
1486726352.6547616, -68, 95, 20, 50, -13, -14, -12, -13, 1280, 720
1486726352.658351, -60, 88, 33, 69, -12, -22, -12, -14, 1280, 720
1486726352.6690855, -64, 92, 51, 72, -15, -12, -13, -17, 1280, 720
1486726352.66968, -65, 98, 39, 67, -18, -15, -14, -14, 1280, 720
1486726352.6748385, -65, 96, 19, 52, -20, -18, -7, -16, 1280, 720
1486726352.6765382, -54, 87, 14, 56, -16, -6, -8, -17, 1280, 720
1486726352.6767962, -57, 75, 50, 63, -18, -12, -10, -12, 1280, 720
1486726352.678716, -64, 68, 64, 87, -24, -16, -11, -9, 1280, 720
1486726352.691603, -42, 74, 19, 50, -20, -16, -14, -17, 1280, 720
1486726352.6922038, -17, 68, -15, 26, -16, -12, -7, -10, 1280, 720
1486726352.6948252, -7, 53, -23, 11, -20, -14, -12, -13, 1280, 720
1486726352.7065034, 7, 33, -12, 24, -16, -15, -8, -18, 1280, 720
1486726352.7074442, 33, 24, -20, -4, -15, -12, -11, -14, 1280, 720
1486726352.7082803, 47, 11, -66, -19, -16, -14, -15, -14, 1280, 720
1486726352.7138731, 79, 9, -106, -52, -19, -10, -14, -22, 1280, 720
1486726352.7148492, 98, -11, -115, -69, -12, -11, -12, -7, 1280, 720
1486726352.716259, 116, -19, -109, -44, -15, -7, -9, -4, 1280, 720
1486726352.7288647, 138, -23, -130, -68, -17, -9, -7, -12, 1280, 720
1486726352.7297456, 149, -27, -145, -94, -21, -14, -11, -13, 1280, 720
1486726352.7324295, 169, -15, -171, -103, -14, -8, -14, -19, 1280, 720
1486726352.7438128, 191, -19, -168, -96, -5, -4, -11, -15, 1280, 720
1486726352.7444923, 192, -23, -155, -89, -10, -7, -7, -20, 1280, 720
1486726352.7451143, 203, -20, -158, -95, -9, -13, -11, -14, 1280, 720
1486726352.7513292, 214, -16, -180, -105, -20, -11, -9, -14, 1280, 720
1486726352.752276, 216, -15, -201, -103, -8, -14, -9, -12, 1280, 720
1486726352.753516, 216, -10, -182, -82, -9, -15, -12, -7, 1280, 720
1486726352.7669475, 216, -10, -161, -74, -11, -12, -15, -14, 1280, 720
1486726352.7677765, 217, -5, -162, -89, -18, -15, -18, -11, 1280, 720
1486726352.769343, 212, 4, -181, -89, -20, -17, -15, -13, 1280, 720
1486726352.7814171, 224, 5, -198, -85, -15, -12, -8, -9, 1280, 720
1486726352.7823024, 214, 2, -177, -76, -14, -10, -16, -9, 1280, 720
1486726352.7827246, 208, 8, -159, -65, -12, -8, -11, -10, 1280, 720
1486726352.788769, 216, 12, -171, -85, -16, -18, -13, -17, 1280, 720
1486726352.7897472, 218, 17, -188, -85, -12, -11, -7, -13, 1280, 720
1486726352.7900248, 210, 17, -191, -78, -10, -3, -11, -18, 1280, 720
1486726352.8044007, 213, 15, -173, -71, -10, -14, -8, -9, 1280, 720
1486726352.8046963, 208, 13, -158, -64, -17, -15, -7, -14, 1280, 720
1486726352.8052974, 205, 26, -163, -80, -18, -15, -10, -20, 1280, 720
1486726352.8135545, 212, 4, -181, -89, -20, -17, -15, -17, 1280, 720
1486726352.8188248, 202, 26, -186, -87, -16, -12, -18, -22, 1280, 720
1486726352.8197367, 205, 19, -172, -68, -14, -12, -13, -7, 1280, 720
1486726352.8210866, 203, 21, -156, -65, -12, -8, -11, -10, 1280, 720
1486726352.8271153, 205, 23, -165, -66, -13, -15, -9, -13, 1280, 720
1486726352.830716, 207, 30, -183, -93, -13, -12, -1, -17, 1280, 720
1486726352.8307867, 200, 22, -184, -78, -10, -3, -11, -18, 1280, 720
1486726352.8413103, 201, 17, -174, -67, -10, -12, -10, -15, 1280, 720
1486726352.8422935, 198, 12, -168, -59, -18, -18, -16, -13, 1280, 720
1486726352.8442855, 196, 20, -169, -61, -18, -15, -10, -20, 1280, 720
1486726352.856294, 193, 20, -188, -94, -14, -14, -15, -14, 1280, 720
1486726352.8572605, 203, 22, -184, -79, -13, -13, -9, -10, 1280, 720
1486726352.858168, 190, 11, -167, -51, -9, -11, -13, -7, 1280, 720
1486726352.8638594, 192, 12, -167, -61, -10, -16, -17, -23, 1280, 720
1486726352.864715, 193, 18, -169, -72, -13, -17, -15, -17, 1280, 720
1486726352.8666077, 201, 22, -183, -93, -13, -12, -1, -17, 1280, 720
1486726352.8788066, 205, 20, -190, -84, -13, -11, -8, -10, 1280, 720
1486726352.8797178, 201, 13, -166, -60, -3, -11, -10, -10, 1280, 720
1486726352.8807852, 188, 13, -152, -57, -10, -18, -16, -13, 1280, 720
1486726352.8937433, 191, 18, -166, -70, -12, -15, -3, -10, 1280, 720
1486726352.8946962, 201, 6, -188, -66, -10, -15, -14, -11, 1280, 720
1486726352.8954947, 203, 6, -198, -88, -5, -9, -9, -10, 1280, 720
1486726352.9012797, 205, 7, -174, -72, -9, -12, -8, -7, 1280, 720
1486726352.902302, 208, 10, -171, -77, -12, -6, -12, -16, 1280, 720
1486726352.9045634, 202, 18, -186, -72, -14, -16, -10, -11, 1280, 720
1486726352.9161868, 215, 21, -202, -77, -11, -8, -10, -13, 1280, 720
1486726352.9170666, 205, 15, -186, -63, -9, -11, -13, -10, 1280, 720
1486726352.9206538, 207, 10, -168, -60, -3, -13, -23, -16, 1280, 720
1486726352.9322038, 198, 16, -165, -58, -14, -16, -6, -12, 1280, 720
1486726352.9339283, 197, 15, -182, -87, -16, -10, -14, -13, 1280, 720
1486726352.9339998, 198, 16, -196, -82, -11, -15, -14, -11, 1280, 720
1486726352.9387314, 201, 8, -184, -58, -6, -12, -8, -19, 1280, 720
1486726352.9396772, 195, 1, -168, -53, -2, -9, -11, -19, 1280, 720
1486726352.9412076, 190, 6, -172, -48, -15, -6, -12, -16, 1280, 720
1486726352.9536095, 201, 5, -199, -71, -15, -13, -9, -4, 1280, 720
1486726352.954539, 194, 9, -195, -77, -18, -10, -19, -12, 1280, 720
1486726352.9569564, 191, 9, -184, -61, -3, -11, -13, -10, 1280, 720
1486726352.9762108, 193, 10, -158, -43, 0, -11, -14, -16, 1280, 720
1486726352.9771054, 182, 11, -160, -63, -13, -11, -19, -17, 1280, 720
1486726352.9776585, 190, 9, -193, -81, -11, -15, -14, -13, 1280, 720
1486726352.9789462, 199, 4, -198, -73, -11, -13, -16, -10, 1280, 720
1486726352.9839242, 193, 1, -186, -56, -7, -10, -13, -11, 1280, 720
1486726352.9882011, 195, -2, -182, -58, -12, -9, -12, -19, 1280, 720
1486726352.9913304, 201, 7, -191, -74, -15, -14, -11, -14, 1280, 720
1486726352.9922113, 201, 8, -205, -77, -20, -14, -10, -5, 1280, 720
1486726352.9934535, 203, 14, -201, -70, -6, -14, -17, -13, 1280, 720
1486726353.0062711, 193, 11, -188, -67, -6, -10, -12, -6, 1280, 720
1486726353.0069573, 192, 4, -179, -53, -10, -5, -10, -14, 1280, 720
1486726353.009148, 199, 21, -183, -72, -6, -12, -11, -14, 1280, 720
1486726353.013752, 199, 20, -195, -79, -17, -16, -17, -16, 1280, 720
1486726353.0144384, 196, 7, -213, -61, -8, -23, -15, -13, 1280, 720
1486726353.0158346, 202, 6, -187, -53, -8, -15, -14, -11, 1280, 720
1486726353.0286949, 193, 0, -172, -50, -11, -21, -10, -8, 1280, 720
1486726353.0295818, 189, 8, -188, -67, -19, -19, -7, -5, 1280, 720
1486726353.0305843, 199, 9, -204, -79, -19, -18, -10, -5, 1280, 720
1486726353.0436642, 200, 14, -200, -58, -11, -21, -14, -15, 1280, 720
1486726353.0446534, 195, 11, -170, -52, -8, -10, -14, -17, 1280, 720
1486726353.0453334, 193, 8, -162, -36, -14, -16, -11, -14, 1280, 720
1486726353.0511725, 189, 9, -176, -43, -15, -13, -11, -20, 1280, 720
1486726353.051888, 194, 10, -195, -77, -15, -15, -14, -10, 1280, 720
1486726353.053786, 192, 8, -194, -51, -7, -11, -16, -12, 1280, 720
1486726353.0661547, 188, -4, -175, -45, -8, -12, -13, -18, 1280, 720
1486726353.0666137, 181, -1, -168, -47, -16, -16, -15, -15, 1280, 720
1486726353.0676024, 184, -1, -187, -53, -16, -14, -16, -19, 1280, 720
1486726353.0811675, 195, -2, -204, -52, -13, -20, -15, -19, 1280, 720
1486726353.0820546, 188, -6, -190, -42, -8, -12, -10, -18, 1280, 720
1486726353.0823858, 182, -7, -158, -25, -12, -21, -15, -15, 1280, 720
1486726353.0887341, 178, -7, -149, -42, -13, -15, -6, -11, 1280, 720
1486726353.0897298, 174, -3, -177, -60, -17, -23, -14, -12, 1280, 720
1486726353.0908637, 173, -9, -179, -67, -23, -17, -7, -17, 1280, 720
1486726353.0909367, 174, -7, -194, -51, -7, -11, -16, -12, 1280, 720
1486726353.1046622, 173, -18, -156, -45, -13, -14, -13, -11, 1280, 720
1486726353.1050878, 175, -14, -151, -27, -14, -16, -16, -13, 1280, 720
1486726353.1051266, 174, -4, -172, -53, -16, -14, -16, -19, 1280, 720
1486726353.119252, 189, -2, -191, -48, -13, -11, -11, -23, 1280, 720
1486726353.1211605, 190, -8, -177, -44, -15, -4, -6, -11, 1280, 720
1486726353.1229088, 182, -21, -164, -40, -8, -21, -15, -15, 1280, 720
1486726353.1262069, 177, -9, -155, -41, -16, -13, -9, -8, 1280, 720
1486726353.12664, 175, -9, -183, -61, -13, -24, -11, -16, 1280, 720
1486726353.1305788, 177, -11, -186, -56, -9, -19, -15, -17, 1280, 720
1486726353.1412103, 186, -20, -176, -36, -11, -16, -17, -15, 1280, 720
1486726353.1421506, 178, -19, -161, -30, -13, -16, -16, -1, 1280, 720
1486726353.1430087, 175, -14, -168, -51, -12, -14, -19, -7, 1280, 720
1486726353.1561801, 187, -9, -189, -60, -16, -18, -10, -6, 1280, 720
1486726353.1568642, 182, -14, -197, -62, -11, -9, -9, -8, 1280, 720
1486726353.158992, 181, -19, -183, -41, -9, -13, -7, -8, 1280, 720
1486726353.1636755, 177, -24, -167, -43, -11, -13, -17, -17, 1280, 720
1486726353.1639626, 178, -14, -170, -69, -12, -12, -17, -17, 1280, 720
1486726353.1677778, 179, -12, -188, -70, -12, -13, -11, -16, 1280, 720
1486726353.178554, 180, -17, -190, -65, -4, -9, -12, -18, 1280, 720
1486726353.1794176, 184, -16, -172, -27, -1, -10, -22, -18, 1280, 720
1486726353.1806848, 178, -16, -159, -36, -11, -13, -21, -1, 1280, 720
1486726353.1936, 169, -16, -170, -51, -17, -17, -15, -11, 1280, 720
1486726353.19461, 173, -15, -188, -46, -8, -7, -15, -17, 1280, 720
1486726353.195353, 178, -11, -184, -59, -12, -16, -14, -14, 1280, 720
1486726353.20123, 167, -14, -170, -29, -5, -11, -17, -9, 2510, 1390
1486726353.2018056, 178, -12, -157, -25, -7, -14, -19, -15, 2510, 1390
1486726353.2035632, 180, -3, -175, -33, -16, -12, -17, -17, 2510, 1390
1486726353.216174, 176, -6, -186, -40, -7, -10, -13, -10, 2510, 1390
1486726353.2170591, 172, -11, -179, -43, -8, -20, -18, -12, 2510, 1390
1486726353.2188723, 174, -10, -159, -46, -12, -5, -12, -18, 2510, 1390
1486726353.23211, 178, -16, -159, -54, -19, -20, -19, -12, 2510, 1390
1486726353.2327862, 182, -11, -178, -41, -16, -17, -9, -10, 2510, 1390
1486726353.2328632, 179, -13, -193, -41, -4, -12, -7, -17, 2510, 1390
1486726353.246009, 174, -19, -195, -51, -16, -13, -9, -9, 2510, 1390
1486726353.246412, 169, -22, -170, -35, -8, -11, -16, -17, 2510, 1390
1486726353.2475967, 177, -17, -172, -42, -14, -12, -13, -7, 2510, 1390
1486726353.253566, 172, -16, -179, -48, -9, -9, -13, -17, 2510, 1390
1486726353.2542672, 175, -15, -186, -39, -15, -13, -17, -14, 2510, 1390
1486726353.2549114, 163, -22, -170, -36, -8, -9, -18, -12, 2510, 1390
1486726353.2686396, 161, -31, -156, -9, -14, -6, -9, -10, 2510, 1390
1486726353.2690496, 155, -28, -149, -33, -15, -15, -8, -14, 2510, 1390
1486726353.2698708, 162, -17, -164, -43, -20, -14, -13, -11, 2510, 1390
1486726353.2759316, 166, -19, -184, -46, -19, -23, -16, -12, 2510, 1390
1486726353.2766535, 171, -22, -175, -34, -8, -9, -13, -14, 2510, 1390
1486726353.277291, 170, -30, -156, -17, -17, -11, -16, -17, 2510, 1390
1486726353.2910745, 167, -26, -154, -30, -19, -11, -14, -14, 2510, 1390
1486726353.291465, 161, -14, -162, -55, -17, -16, -17, -13, 2510, 1390
1486726353.2925043, 166, -21, -181, -41, 1, -10, -15, -16, 2510, 1390
1486726353.305926, 164, -23, -164, -36, -3, -6, -17, -18, 2510, 1390
1486726353.306345, 163, -28, -143, -12, -13, -19, -13, -16, 2510, 1390
1486726353.3072686, 150, -26, -147, -33, -9, -10, -12, -10, 2510, 1390
1486726353.313573, 156, -19, -166, -53, -18, -6, -4, -18, 2510, 1390
1486726353.3139803, 158, -18, -173, -44, -14, -13, -18, -13, 2510, 1390
1486726353.3147652, 151, -29, -159, -17, -3, -10, -11, -13, 2510, 1390
1486726353.321192, 170, -30, -156, -17, -17, -13, -18, -10, 2510, 1390
1486726353.3285942, 163, -19, -153, -20, -19, -15, -14, -13, 2510, 1390
1486726353.3289907, 152, -14, -166, -48, -18, -13, -12, -16, 2510, 1390
1486726353.3298953, 155, -21, -181, -41, 1, -10, -15, -16, 2510, 1390
1486726353.343524, 157, -20, -157, -21, -11, -11, -11, -13, 2510, 1390
1486726353.343913, 150, -23, -148, -18, -24, -6, -9, -20, 2510, 1390
1486726353.3448946, 149, -21, -158, -48, -9, -10, -12, -10, 2510, 1390
1486726353.3510098, 152, -17, -172, -27, -20, -6, -5, -15, 2510, 1390
1486726353.351369, 158, -24, -180, -35, -14, -1, -4, -14, 2510, 1390
1486726353.3524168, 151, -35, -169, -19, -8, -10, -11, -13, 2510, 1390
1486726353.3659832, 151, -33, -164, -34, -15, -5, -13, -15, 2510, 1390
1486726353.3663547, 156, -28, -175, -47, -24, -17, -18, -17, 2510, 1390
1486726353.3680518, 151, -27, -179, -39, -27, -15, -12, -16, 2510, 1390
1486726353.3810902, 154, -25, -180, -31, -12, -6, -10, -15, 2510, 1390
1486726353.3848112, 151, -27, -158, -30, -20, -11, -11, -9, 2510, 1390
1486726353.388189, 147, -24, -142, -19, -11, -14, -11, -16, 2510, 1390
1486726353.3898797, 150, -24, -164, -48, -16, -23, -7, -15, 2510, 1390
1486726353.3899527, 148, -23, -189, -52, -12, -8, -10, -15, 2510, 1390
1486726353.3906698, 151, -31, -184, -41, -17, -12, -10, -11, 2510, 1390
1486726353.4045084, 158, -32, -169, -23, -15, -10, -11, -20, 2510, 1390
1486726353.4051204, 156, -22, -165, -51, -16, -12, -13, -16, 2510, 1390
1486726353.4062452, 153, -23, -170, -56, -20, -12, -6, -7, 2510, 1390
1486726353.419473, 153, -20, -179, -60, -20, -23, -19, -14, 2510, 1390
1486726353.4216533, 154, -25, -177, -47, -20, -12, -15, -9, 2510, 1390
1486726353.4239087, 155, -25, -151, -15, -12, -6, -15, -9, 2510, 1390
1486726353.4270031, 146, -15, -144, -29, -18, -14, -13, -17, 2510, 1390
1486726353.4289541, 152, -5, -165, -41, -18, -24, -18, -21, 2510, 1390
1486726353.430045, 160, 0, -179, -50, -23, -18, -9, -13, 2510, 1390
1486726353.441026, 162, -7, -168, -40, -12, -13, -7, -7, 2510, 1390
1486726353.441951, 149, -16, -144, -40, -14, -10, -10, -15, 2510, 1390
1486726353.4422362, 150, -16, -143, -25, -15, -10, -10, -16, 2510, 1390
1486726353.4559708, 149, -2, -167, -46, -17, -15, -13, -12, 2510, 1390
1486726353.4569688, 159, -7, -175, -47, -14, -15, -19, -18, 2510, 1390
1486726353.4581754, 154, -13, -169, -50, -13, -12, -15, -9, 2510, 1390
1486726353.4634416, 157, -11, -153, -27, -15, -9, -6, -15, 2510, 1390
1486726353.4644618, 160, -13, -156, -44, -12, -4, -1, -18, 2510, 1390
1486726353.465858, 155, -10, -169, -34, -15, -24, -18, -21, 2510, 1390
1486726353.4785082, 152, -13, -170, -48, -20, -14, -16, -25, 2510, 1390
1486726353.4793258, 150, -10, -150, -23, -9, -8, -15, -22, 2510, 1390
1486726353.4805324, 159, -16, -151, -10, -10, -10, -10, -28, 2510, 1390
1486726353.4936047, 171, 6, -164, -41, -13, -14, -10, -19, 2510, 1390
1486726353.4944677, 193, 29, -200, -63, -17, -16, -9, -18, 2510, 1390
1486726353.4953947, 220, 42, -222, -69, -8, -12, -10, -17, 2510, 1390
1486726353.5010133, 235, 50, -221, -52, -11, -11, -13, -10, 2510, 1390
1486726353.5018022, 259, 62, -235, -78, -20, -17, -14, -15, 2510, 1390
1486726353.5051963, 275, 79, -248, -73, -17, -10, -10, -14, 2510, 1390
1486726353.5157857, 293, 94, -285, -82, -11, -4, -3, -13, 2510, 1390
1486726353.516955, 323, 107, -302, -100, -16, -9, -18, -12, 2510, 1390
1486726353.521562, 330, 113, -293, -74, -15, -14, -15, -22, 2510, 1390
1486726353.5310335, 345, 127, -297, -80, -5, -11, -16, -20, 2510, 1390
1486726353.5318873, 351, 139, -321, -102, -16, -9, -12, -19, 2510, 1390
1486726353.5321698, 372, 149, -357, -126, -18, -12, -10, -18, 2510, 1390
1486726353.5384579, 380, 143, -370, -109, -9, -11, -13, -20, 2510, 1390
1486726353.539069, 391, 138, -372, -93, -10, -15, -9, -13, 2510, 1390
1486726353.5405412, 391, 147, -354, -98, -17, -14, -11, -14, 2510, 1390
1486726353.553462, 390, 152, -371, -114, -17, -18, -12, -16, 2510, 1390
1486726353.554392, 385, 159, -379, -113, -20, -16, -13, -12, 2510, 1390
1486726353.5556142, 385, 153, -380, -106, -11, -15, -12, -13, 2510, 1390
1486726353.5685594, 380, 150, -356, -84, -12, -13, -9, -21, 2510, 1390
1486726353.5691895, 381, 153, -349, -83, -6, -9, -8, -17, 2510, 1390
1486726353.5701382, 385, 159, -363, -96, -13, -6, -16, -21, 2510, 1390
1486726353.570502, 394, 162, -357, -126, -18, -12, -10, -13, 2510, 1390
1486726353.5760255, 391, 159, -376, -93, -12, -12, -14, -13, 2510, 1390
1486726353.5764184, 388, 145, -361, -82, -13, -11, -15, -16, 2510, 1390
1486726353.5782552, 380, 148, -358, -98, -17, -14, -11, -14, 2510, 1390
1486726353.5917048, 378, 157, -374, -105, -22, -17, -17, -15, 2510, 1390
1486726353.5919862, 385, 149, -379, -114, -17, -13, -12, -12, 2510, 1390
1486726353.5920215, 379, 150, -356, -75, -11, -15, -12, -13, 2510, 1390
1486726353.605837, 369, 140, -336, -69, -12, -15, -14, -14, 2510, 1390
1486726353.6064827, 369, 142, -341, -83, -17, -11, -18, -16, 2510, 1390
1486726353.6074488, 368, 148, -361, -104, -14, -17, -16, -21, 2510, 1390
1486726353.613407, 375, 150, -378, -93, -16, -19, -8, -15, 2510, 1390
1486726353.6137972, 376, 148, -360, -79, -10, -25, -22, -16, 2510, 1390
1486726353.614753, 373, 143, -343, -82, -13, -11, -15, -16, 2510, 1390
1486726353.6283295, 367, 145, -344, -86, -15, -8, -2, -11, 2510, 1390
1486726353.6285832, 372, 151, -365, -117, -13, -10, -5, -13, 2510, 1390
1486726353.6297977, 382, 150, -377, -83, -13, -13, -12, -12, 2510, 1390
1486726353.6434011, 378, 144, -357, -86, -15, -12, -8, -18, 2510, 1390
1486726353.6437619, 368, 141, -349, -89, -7, -8, -14, -9, 2510, 1390
1486726353.644457, 362, 145, -343, -80, -13, -11, -18, -16, 2510, 1390
1486726353.6509209, 364, 154, -355, -95, -19, -9, -9, -12, 2510, 1390
1486726353.6513119, 361, 147, -361, -95, -10, -12, -4, -15, 2510, 1390
1486726353.6519313, 361, 147, -342, -74, -5, -10, -22, -16, 2510, 1390
1486726353.6662405, 362, 137, -333, -55, -19, -20, -8, -13, 2510, 1390
1486726353.66631, 359, 145, -343, -63, -14, -9, -6, -7, 2510, 1390
1486726353.6672397, 356, 153, -352, -90, -22, -18, -12, -19, 2510, 1390
1486726353.6808767, 362, 147, -352, -88, -18, -18, -14, -16, 2510, 1390
1486726353.681237, 357, 139, -341, -86, -16, -15, -14, -13, 2510, 1390
1486726353.68231, 356, 136, -324, -63, -12, -14, -16, -14, 2510, 1390
1486726353.6883993, 351, 136, -332, -84, -23, -14, -11, -18, 2510, 1390
1486726353.6887863, 359, 136, -355, -75, -11, -16, -17, -12, 2510, 1390
1486726353.6897924, 355, 130, -360, -85, -12, -11, -17, -10, 2510, 1390
1486726353.703361, 351, 129, -336, -61, -13, -17, -12, -11, 2510, 1390
1486726353.7037737, 345, 128, -320, -51, -12, -12, -14, -12, 2510, 1390
1486726353.7047048, 348, 132, -328, -71, -14, -13, -6, -7, 2510, 1390
1486726353.71827, 354, 126, -350, -102, -16, -7, -11, -21, 2510, 1390
1486726353.7186658, 345, 125, -350, -83, -12, -17, -17, -15, 2510, 1390
1486726353.719657, 348, 119, -334, -74, -12, -16, -14, -13, 2510, 1390
1486726353.725868, 344, 109, -327, -62, -15, -14, -10, -14, 2510, 1390
1486726353.7262595, 341, 121, -337, -71, -12, -18, -10, -11, 2510, 1390
1486726353.7272375, 345, 121, -351, -89, -10, -14, -17, -13, 2510, 1390
1486726353.7408576, 342, 115, -345, -66, -11, -16, -19, -17, 2510, 1390
1486726353.7412176, 337, 105, -333, -58, -5, -10, -12, -7, 2510, 1390
1486726353.7422402, 346, 109, -330, -68, -10, -12, -14, -12, 2510, 1390
1486726353.7557225, 342, 119, -332, -94, -24, -17, -11, -23, 2510, 1390
1486726353.756436, 346, 122, -356, -85, -15, -17, -14, -18, 2510, 1390
1486726353.757893, 342, 124, -340, -70, -9, -12, -17, -15, 2510, 1390
1486726353.763485, 338, 111, -324, -76, -7, -9, -14, -17, 2510, 1390
1486726353.7638152, 336, 101, -322, -78, -13, -9, -8, -15, 2510, 1390
1486726353.7646546, 335, 109, -338, -76, -23, -18, -10, -11, 2510, 1390
1486726353.7782698, 335, 111, -352, -93, -19, -19, -14, -13, 2510, 1390
1486726353.7786663, 336, 108, -340, -54, -14, -14, -19, -12, 2510, 1390
1486726353.7794108, 331, 106, -321, -61, -8, -9, -10, -20, 2510, 1390
1486726353.793256, 338, 117, -317, -68, -16, -13, -4, -14, 2510, 1390
1486726353.7936645, 331, 119, -331, -78, -13, -11, -7, -15, 2510, 1390
1486726353.7946877, 336, 119, -342, -87, -17, -15, -15, -11, 2510, 1390
1486726353.8009017, 338, 111, -332, -77, -10, -12, -10, -19, 2510, 1390
1486726353.8012533, 326, 101, -314, -65, -15, -19, -11, -15, 2510, 1390
1486726353.8020854, 327, 106, -321, -85, -9, -8, -12, -20, 2510, 1390
1486726353.8158257, 332, 107, -347, -97, -11, -14, -14, -21, 2510, 1390
1486726353.8162324, 325, 111, -352, -90, -12, -9, -15, -15, 2510, 1390
1486726353.8170874, 321, 99, -332, -66, -10, -12, -10, -16, 2510, 1390
1486726353.8178158, 321, 98, -321, -61, -8, -9, -10, -20, 2510, 1390
1486726353.8307703, 330, 106, -324, -68, -12, -10, -8, -8, 2510, 1390
1486726353.8311422, 322, 105, -332, -72, -24, -14, -12, -8, 2510, 1390
1486726353.8322453, 322, 107, -333, -85, -17, -15, -15, -11, 2510, 1390
1486726353.845789, 319, 100, -313, -72, -16, -15, -20, -13, 2510, 1390
1486726353.8461876, 316, 101, -306, -79, -19, -15, -15, -20, 2510, 1390
1486726353.8470302, 314, 100, -317, -79, -9, -8, -12, -20, 2510, 1390
1486726353.853199, 322, 98, -339, -97, -20, -20, -16, -13, 2510, 1390
1486726353.8534613, 318, 96, -343, -76, -13, -13, -14, -16, 2510, 1390
1486726353.8547552, 323, 86, -319, -68, -10, -12, -10, -16, 2510, 1390
1486726353.8680866, 313, 91, -308, -55, -8, -6, -15, -19, 2510, 1390
1486726353.868831, 313, 91, -312, -56, -19, -13, -17, -19, 2510, 1390
1486726353.8698652, 310, 99, -323, -77, -24, -14, -12, -8, 2510, 1390
1486726353.875755, 309, 99, -327, -86, -11, -13, -14, -17, 2510, 1390
1486726353.8761556, 305, 89, -301, -45, -10, -18, -15, -18, 2510, 1390
1486726353.8771381, 304, 89, -292, -69, -15, -15, -15, -20, 2510, 1390
1486726353.8905675, 304, 100, -295, -78, -22, -16, -13, -25, 2510, 1390
1486726353.8912957, 307, 95, -318, -82, -16, -16, -12, -20, 2510, 1390
1486726353.892096, 308, 93, -318, -69, -13, -15, -14, -16, 2510, 1390
1486726353.9057782, 305, 83, -296, -59, -17, -12, -11, -18, 2510, 1390
1486726353.9061668, 300, 84, -287, -52, -16, -6, -7, -6, 2510, 1390
1486726353.907071, 305, 92, -309, -90, -18, -12, -7, -13, 2510, 1390
1486726353.9131644, 306, 94, -326, -85, -18, -15, -5, -8, 2510, 1390
1486726353.9135725, 304, 87, -311, -59, -16, -18, -14, -9, 2510, 1390
1486726353.9145072, 297, 85, -288, -67, -17, -18, -15, -18, 2510, 1390
1486726353.928215, 299, 82, -288, -55, -17, -18, -11, -21, 2510, 1390
1486726353.9286814, 297, 85, -306, -67, -19, -17, -9, -23, 2510, 1390
1486726353.9296143, 298, 80, -331, -81, -17, -15, -11, -20, 2510, 1390
1486726353.9431953, 299, 70, -326, -61, -18, -7, -11, -21, 2510, 1390
1486726353.9435344, 293, 71, -301, -54, -6, -10, -18, -20, 2510, 1390
1486726353.944589, 287, 74, -296, -65, -10, -9, -14, -20, 2510, 1390
1486726353.9507117, 292, 78, -312, -73, -20, -19, -8, -18, 2510, 1390
1486726353.9510686, 294, 74, -332, -78, -9, -12, -8, -15, 2510, 1390
1486726353.9519598, 290, 71, -324, -74, -10, -18, -14, -9, 2510, 1390
1486726353.9657207, 293, 67, -307, -72, -15, -13, -8, -12, 2510, 1390
1486726353.966066, 295, 72, -302, -69, -15, -12, -9, -14, 2510, 1390
1486726353.9673624, 292, 79, -311, -95, -23, -13, -7, -11, 2510, 1390
1486726353.9807117, 294, 78, -318, -76, -12, -23, -15, -7, 2510, 1390
1486726353.9811108, 289, 70, -302, -53, -16, -19, -17, -14, 2510, 1390
1486726353.98208, 290, 69, -287, -51, -9, -14, -15, -10, 2510, 1390
1486726353.989497, 287, 73, -286, -64, -15, -13, -13, -17, 2510, 50
1486726353.9898283, 291, 77, -314, -88, -17, -10, -10, -15, 2510, 50
1486726353.9898646, 287, 73, -313, -53, -7, -11, -12, -19, 2510, 50
1486726354.0031507, 283, 65, -307, -58, -6, -7, -5, -3, 2510, 50
1486726354.0034754, 289, 69, -280, -57, -10, -12, -12, -7, 2510, 50
1486726354.0044606, 278, 74, -282, -51, -10, -9, -9, -14, 2510, 50
1486726354.0183642, 278, 70, -292, -76, -6, -10, -16, -17, 2510, 50
1486726354.0188568, 275, 76, -297, -67, -9, -16, -15, -13, 2510, 50
1486726354.0194578, 272, 69, -286, -53, -3, -13, -17, -14, 2510, 50
1486726354.0257246, 268, 67, -277, -58, -11, -10, -7, -20, 2510, 50
1486726354.0261126, 273, 71, -278, -51, -15, -14, -9, -11, 2510, 50
1486726354.0271666, 267, 73, -294, -60, -11, -15, -12, -15, 2510, 50
1486726354.0405438, 277, 77, -293, -52, -12, -18, -10, -14, 2510, 50
1486726354.0411372, 277, 67, -277, -56, -6, -10, -13, -12, 2510, 50
1486726354.0420482, 265, 78, -253, -44, -17, -19, -16, -16, 2510, 50
1486726354.0427, 278, 74, -282, -51, -10, -9, -10, -19, 2510, 50
1486726354.0558946, 273, 84, -294, -70, -9, -13, -14, -17, 2510, 50
1486726354.0562835, 272, 69, -291, -62, -17, -12, -20, -10, 2510, 50
1486726354.057524, 256, 62, -286, -53, -3, -13, -11, -11, 2510, 50
1486726354.063138, 259, 65, -258, -52, -13, -11, -11, -16, 2510, 50
1486726354.0633914, 255, 64, -267, -49, -19, -7, -4, -14, 2510, 50
1486726354.0646033, 256, 72, -284, -60, -11, -15, -12, -11, 2510, 50
1486726354.0791967, 258, 65, -285, -74, -21, -14, -16, -18, 2510, 50
1486726354.0796635, 263, 59, -269, -58, -11, -12, -17, -9, 2510, 50
1486726354.0826883, 259, 59, -256, -44, -17, -19, -16, -16, 2510, 50
1486726354.0935578, 259, 69, -273, -73, -12, -11, -11, -16, 2510, 50
1486726354.0939443, 262, 67, -292, -63, -21, -13, -9, -1, 2510, 50
1486726354.095124, 262, 60, -288, -52, -8, -12, -20, -10, 2510, 50
1486726354.1014595, 268, 55, -277, -56, -7, -9, -11, -19, 2510, 50
1486726354.1028416, 264, 57, -281, -49, -13, -10, -12, -18, 2510, 50
1486726354.1057303, 264, 59, -292, -63, -16, -7, -4, -14, 2510, 50
1486726354.1164308, 256, 62, -303, -63, -15, -11, -12, -17, 2510, 50
1486726354.1185694, 257, 57, -295, -55, -7, -7, -14, -17, 2510, 50
1486726354.1213655, 250, 45, -275, -46, -5, -7, -17, -9, 2510, 50
1486726354.1369977, 250, 47, -270, -44, -17, -9, -7, -16, 2510, 50
1486726354.1370757, 254, 43, -293, -76, -16, -14, -15, -9, 2510, 50
1486726354.1377091, 252, 48, -296, -69, -20, -18, -11, -8, 2510, 50
1486726354.1393461, 256, 42, -298, -69, -9, -7, -14, -6, 2510, 50
1486726354.1425128, 267, 37, -276, -56, -20, -14, -13, -15, 2510, 50
1486726354.145098, 265, 40, -275, -60, -19, -6, -14, -19, 2510, 50
1486726354.153456, 263, 50, -289, -71, -8, -8, -16, -19, 2510, 50
1486726354.1539426, 268, 48, -307, -84, -11, -6, -14, -20, 2510, 50
1486726354.1570125, 257, 42, -282, -62, -15, -7, -14, -17, 2510, 50
1486726354.171015, 258, 40, -267, -54, -9, -3, -8, -10, 2510, 50
1486726354.1763804, 249, 45, -263, -59, -14, -7, -11, -13, 2510, 50
1486726354.1766107, 251, 50, -279, -72, -16, -9, -6, -9, 2510, 50
1486726354.1768377, 252, 44, -288, -58, -14, -11, -5, -10, 2510, 50
1486726354.1845868, 251, 31, -279, -52, -11, -9, -5, -16, 2510, 50
1486726354.1889687, 247, 35, -250, -41, -14, -12, -14, -15, 2510, 50
1486726354.191602, 242, 39, -246, -41, -18, -13, -8, -17, 2510, 50
1486726354.1935065, 244, 51, -258, -44, -20, -13, -10, -14, 2510, 50
1486726354.1951127, 243, 41, -271, -53, -9, -6, -14, -20, 2510, 50
1486726354.2069607, 244, 35, -255, -32, -8, -8, -11, -10, 2510, 50
1486726354.207033, 251, 39, -244, -24, -13, -4, -17, -15, 2510, 50
1486726354.2077203, 257, 33, -259, -44, -17, -7, -11, -13, 2510, 50
1486726354.2131853, 250, 11, -264, -52, -13, -9, -12, -13, 2510, 50
1486726354.2134376, 252, 13, -276, -44, -11, -11, -10, -15, 2510, 50
1486726354.2158158, 255, 3, -271, -52, -1, -9, -5, -16, 2510, 50
1486726354.2282202, 262, -30, -254, -58, -11, -19, -10, -13, 2510, 50
1486726354.2292259, 247, -66, -262, -74, -9, -12, -13, -10, 2510, 50
1486726354.2303908, 261, -91, -287, -98, -12, -8, -2, -11, 2510, 50
1486726354.2431357, 272, -119, -292, -99, -7, -7, -3, -12, 2510, 50
1486726354.2442176, 283, -172, -289, -84, -2, -6, -5, -20, 2510, 50
1486726354.2471, 278, -209, -277, -93, -7, -8, -10, -26, 2510, 50
1486726354.2506857, 294, -224, -299, -113, -8, -9, -3, -17, 2510, 50
1486726354.2517161, 289, -237, -310, -116, -4, -12, -9, -19, 2510, 50
1486726354.252487, 299, -262, -310, -127, -11, -6, -10, -13, 2510, 50
1486726354.2656713, 296, -282, -289, -118, -3, -11, -11, -17, 2510, 50
1486726354.2666013, 295, -287, -278, -119, -12, -9, -12, -13, 2510, 50
1486726354.2678416, 299, -290, -302, -130, -18, -8, -5, -16, 2510, 50
1486726354.2807486, 302, -290, -297, -127, -10, -14, -12, -13, 2510, 50
1486726354.281521, 311, -282, -287, -107, -3, -6, -12, -15, 2510, 50
1486726354.2819355, 307, -278, -263, -96, -12, -6, -16, -11, 2510, 50
1486726354.2832186, 308, -209, -277, -93, -7, -8, -10, -26, 2510, 50
1486726354.2882688, 308, -268, -281, -108, -10, -9, -5, -13, 2510, 50
1486726354.2886267, 307, -244, -281, -123, -3, -3, -5, -19, 2510, 50
1486726354.3030984, 313, -247, -274, -109, -9, -14, -15, -15, 2510, 50
1486726354.3033695, 316, -240, -248, -96, -15, -7, -13, -16, 2510, 50
1486726354.3047798, 320, -229, -246, -80, -12, -18, -7, -15, 2510, 50
1486726354.3182044, 330, -219, -257, -98, -9, -19, -11, -14, 2510, 50
1486726354.3189158, 322, -206, -253, -96, -11, -12, -11, -14, 2510, 50
1486726354.3196712, 324, -209, -254, -73, -15, -8, -10, -16, 2510, 50
1486726354.320071, 318, -458, -263, -96, -12, -6, -16, -11, 2510, 50
1486726354.3255713, 313, -193, -228, -91, -13, -11, -7, -23, 2510, 50
1486726354.3266184, 323, -177, -230, -95, -13, -11, -10, -24, 2510, 50
1486726354.3277934, 321, -174, -239, -76, -3, -3, -5, -15, 2510, 50
1486726354.3406215, 317, -189, -231, -59, -3, -16, -16, -18, 2510, 50
1486726354.3416126, 318, -182, -207, -43, -6, -16, -13, -15, 2510, 50
1486726354.3435738, 314, -176, -210, -53, -12, -18, -7, -15, 2510, 50
