t, ch0, ch1, ch2, ch3, ch4, ch5, ch6, ch7, x, y
1486724580.857398, -751, -450, 738, 138, -352, -231, 24, -12, 0, 0
1486724580.8574398, -754, -451, 736, 144, -349, -230, 25, -12, 0, 0
1486724580.8574662, -760, -453, 730, 155, -333, -225, 31, -8, 0, 0
1486724580.8574872, -751, -458, 736, 156, -351, -228, 32, -2, 0, 0
1486724580.8575068, -755, -453, 747, 131, -369, -228, 30, -1, 0, 0
1486724580.857526, -744, -454, 723, 118, -358, -231, 28, -7, 0, 0
1486724580.857545, -758, -463, 712, 134, -340, -231, 28, -6, 0, 0
1486724580.8575673, -751, -457, 733, 163, -337, -231, 27, -16, 0, 0
1486724580.8575861, -744, -453, 728, 161, 4775, 13053, -12802, -26622, 0, 0
1486724580.8576052, -740, -458, 719, 163, -325, -226, 26, -17, 0, 0
1486724580.8576238, -742, -456, 730, 144, -347, -227, 25, -12, 0, 0
1486724580.8576448, -745, -455, 732, 132, -350, -218, 27, -14, 0, 0
1486724580.8576636, -1133, -461, 1000, 90, -254, -224, 19, -6, 0, 0
1486724580.8576822, -1169, -463, 1032, 126, -268, -219, 17, -12, 0, 0
1486724580.8577003, -1166, -478, 792, 159, -348, -233, 25, -14, 0, 0
1486724580.857719, -749, -426, 720, 120, -341, -224, 22, -11, 0, 0
1486724580.8577392, -707, -418, 703, 126, -345, -218, 27, -17, 0, 0
1486724580.8577697, -667, -420, 708, 132, -390, -219, 25, -6, 0, 0
1486724580.8578231, -645, -411, 713, 97, -378, -218, 20, -9, 0, 0
1486724580.8578477, -674, -412, 694, 89, -345, -214, 23, -12, 0, 0
1486724580.8578677, -645, -422, 677, 116, -394, -222, 27, -7, 0, 0
1486724580.8578863, -618, -409, 700, 117, -386, -223, 28, -7, 0, 0
1486724580.8582218, -624, -419, 698, 105, -384, -221, 24, -9, 0, 0
1486724580.8582587, -639, -390, 691, 91, -331, -202, 22, -21, 0, 0
1486724580.858283, -535, -270, 656, -22, -451, -225, 27, -14, 0, 0
1486724580.858304, -511, -265, 664, -25, -461, -221, 25, -10, 0, 0
1486724580.8583238, -503, -261, 646, -43, -414, -206, 21, -10, 0, 0
1486724580.8583431, -543, -264, 632, -45, -394, -207, 28, -15, 0, 0
1486724580.8583624, -545, -278, 623, -24, -388, -207, 14, -17, 0, 0
1486724580.8583813, -533, -280, 632, -17, -441, -216, 24, -11, 0, 0
1486724580.8584003, -502, -277, 645, -4, -445, -215, 29, -9, 0, 0
1486724580.8584192, -499, -270, 642, -21, -426, -210, 26, -6, 0, 0
1486724580.8584378, -497, -258, 628, -64, -434, -203, 18, -14, 0, 0
1486724580.8584569, -517, -255, 614, -61, -383, -199, 23, -9, 0, 0
1486724580.8584754, -534, -259, 620, -36, -400, -201, 26, -10, 0, 0
1486724580.8584943, -506, -264, 623, -29, -444, -210, 23, -17, 0, 0
1486724580.8585129, -475, -250, 627, -36, -458, -212, 23, -14, 0, 0
1486724580.8585312, -490, -249, 627, -47, -416, -203, 18, -15, 0, 0
1486724580.8585498, -529, -259, 609, -48, -388, -190, 19, -16, 0, 0
1486724580.8585682, -526, -261, 618, -21, -398, -195, 26, -17, 0, 0
1486724580.8585865, -488, -266, 627, -23, -442, -208, 21, -17, 0, 0
1486724580.8586097, -468, -264, 619, 15048, 8176, 510, 27135, -15614, 0, 0
1486724580.8586302, -511, -256, 614, -48, -389, -201, 18, -3, 0, 0
1486724580.8586493, -513, -262, 602, -30, -408, -211, 14, -5, 0, 0
1486724580.8586676, -461, -265, 614, -21, -442, -210, 13, -8, 0, 0
1486724580.8588367, -460, -256, 631, -41, -447, -197, 22, -10, 0, 0
1486724580.858864, -478, -256, 615, -41, -406, -196, 16, -14, 0, 0
1486724580.8588848, -507, -260, 610, -32, -388, -194, 18, -15, 0, 0
1486724580.858919, -503, -262, 614, -16, -406, -210, 23, 3, 0, 0
1486724580.858962, -472, -272, 622, -23, -459, -206, 24, -5, 0, 0
1486724580.8590019, -458, -260, 621, -43, -441, -207, 20, -3, 0, 0
1486724580.859041, -488, -262, 616, -49, -402, -198, 22, 0, 0, 0
1486724580.8590713, -513, -261, 607, -42, -380, -206, 19, -8, 0, 0
1486724580.859091, -494, -257, 612, -17, -414, -211, 14, -5, 0, 0
1486724580.8591223, -465, -261, 624, -13, -435, -211, 26, -9, 0, 0
1486724580.8591597, -447, -255, 624, -42, -433, -201, 23, -6, 0, 0
1486724580.859189, -492, -250, 619, -50, -397, -198, 16, -14, 0, 0
1486724580.8592088, -516, -270, 596, -31, -370, -201, 13, -10, 0, 0
1486724580.859251, -492, -264, 612, -21, -437, -210, 19, -3, 0, 0
1486724580.8592696, -457, -262, 625, -6, -450, -207, 21, -13, 0, 0
1486724580.8592877, -455, -257, 626, -37, -439, -203, 20, -12, 0, 0
1486724580.8593063, -485, -258, 612, -42, -394, -200, 11, -10, 0, 0
1486724580.8593245, -511, -263, 602, -29, -385, -200, 21, -10, 0, 0
1486724580.8593452, -485, -260, 606, -8, -429, -210, 20, -9, 0, 0
1486724580.8593655, -456, -265, 627, -14, -445, -209, 21, -7, 0, 0
1486724580.8593843, -458, -255, 620, -37, -420, -201, 23, -6, 0, 0
1486724580.8594046, -484, -262, 614, -26, -371, -204, 26, -6, 0, 0
1486724580.859425, -498, -262, 603, -18, -394, -203, 21, -4, 0, 0
1486724580.8594458, -476, -269, 616, -5, -432, -208, 19, -3, 0, 0
1486724580.8597102, -453, -261, 616, -28, -449, -212, 23, -9, 0, 0
1486724580.859739, -463, -264, 613, -37, -416, -200, 17, -7, 0, 0
1486724580.8597598, -499, -273, 608, -21, -363, -194, 18, -10, 0, 0
1486724580.8597794, -510, -273, 601, -19, -380, -205, 15, -13, 0, 0
1486724580.8597991, -497, -271, 617, -29, -436, -209, 20, -3, 0, 0
1486724580.8598175, -460, -274, 631, -3, -446, -200, 25, -12, 0, 0
1486724580.859836, -492, -303, 619, -3, -375, -197, 20, -9, 0, 0
1486724580.859855, -554, -318, 625, 20, -327, -194, 16, -9, 0, 0
1486724580.8598733, -593, -334, 641, 46, -328, -197, 33, -6, 0, 0
1486724580.859892, -596, -365, 660, 73, -352, -206, 19, -14, 0, 0
1486724580.8599107, -616, -375, 694, 73, -358, -208, 24, -7, 0, 0
1486724580.8599288, -669, -400, 717, 99, -291, -191, 20, -6, 0, 0
1486724580.8599472, -499, -273, 608, -21, -363, -194, 18, -6, 0, 0
1486724580.8599653, -795, -465, 745, 167, -242, -200, 21, -10, 0, 0
1486724580.8599842, -803, -488, 771, 192, -271, -211, 13, -12, 0, 0
1486724580.8600023, -797, -274, 631, -3, -446, -200, 25, -12, 0, 0
1486724580.8600204, -844, -526, 793, 207, -208, -198, 23, -4, 0, 0
1486724580.860039, -905, -547, 789, 232, -181, -201, 18, -9, 0, 0
1486724580.86006, -914, -578, 537, 46, -328, -197, 33, -6, 0, 0
1486724580.860081, -888, -592, 792, 282, -234, -210, 23, -8, 0, 0
1486724580.860102, -884, -611, 802, 279, -218, -209, 15, -10, 0, 0
1486724580.8601315, -903, -624, 802, 99, -291, -191, 20, -6, 0, 0
1486724580.8601503, -946, -647, 772, 309, -159, -200, 20, -8, 0, 0
1486724580.860457, -941, -663, 762, 338, -175, -209, 20, -12, 0, 0
1486724580.8604844, -902, -687, 763, 336, -475, -211, 13, -12, 0, 0
1486724580.8605046, -880, -681, 760, 307, -219, -204, 15, -13, 0, 0
1486724580.8605235, -907, -693, 749, 321, -174, -194, 16, -8, 0, 0
1486724580.8605425, -932, -690, 733, 335, -149, -195, 21, -9, 0, 0
1486724580.8605678, -916, -711, 730, 358, -198, -202, 20, -11, 0, 0
1486724580.860589, -873, -706, 728, 350, -228, -195, 21, -9, 0, 0
1486724580.8606088, -855, -704, 725, 324, -210, -195, 12, -10, 0, 0
1486724580.8606515, -879, -707, 700, 316, -183, -191, 18, -8, 0, 0
1486724580.8606708, -894, -714, 690, 339, -164, -198, 21, -5, 0, 0
1486724580.8606894, -874, -712, 693, 341, -235, -205, 10, -13, 0, 0
1486724580.860708, -836, -706, 693, 324, -259, -204, 21, -5, 0, 0
1486724580.8607266, -833, -697, 687, 291, -247, -195, 26, -1, 0, 0
1486724580.860745, -876, -708, 682, 311, -183, -194, 16, -8, 0, 0
1486724580.860763, -877, -708, 680, 336, -178, -195, 26, -7, 0, 0
1486724580.8607824, -854, -704, 677, 329, -241, -203, 27, -3, 0, 0
1486724580.8608007, -814, -701, 685, 309, -258, -195, 21, -9, 0, 0
1486724580.8608189, -825, -693, 684, 299, -235, -196, 22, -9, 0, 0
1486724580.8608372, -861, -692, 667, 283, -191, -190, 21, -12, 0, 0
1486724580.8608558, -854, -701, 663, 308, -200, -198, 21, -5, 0, 0
1486724580.8608763, -824, -704, 664, 315, -245, -200, 20, -13, 0, 0
1486724580.8609061, -799, -689, 676, 295, -280, -201, 18, -5, 0, 0
1486724580.8609347, -794, -681, 672, 276, -245, -189, 15, -13, 0, 0
1486724580.8611941, -841, -694, 656, 285, -197, -186, 21, -5, 0, 0
1486724580.8612216, -848, -694, 661, 297, -214, -192, 15, -16, 0, 0
1486724580.8612416, -819, -700, 660, 294, -14, -203, 27, -3, 0, 0
1486724580.8612607, -780, -693, 650, 268, -288, -192, 21, -15, 0, 0
1486724580.8612828, -794, -686, 652, 265, -235, -192, 13, -15, 0, 0
1486724580.861302, -828, -694, 649, 286, -201, -186, 21, -12, 0, 0
1486724580.8613236, -821, -693, 651, 289, -225, -194, 17, -9, 0, 0
1486724580.861343, -798, -694, 653, 302, -255, -202, 22, -7, 0, 0
1486724580.8613622, -765, -686, 665, 286, -266, -197, 23, -5, 0, 0
1486724580.8613808, -792, -684, 655, 280, -219, -197, 15, -14, 0, 0
1486724580.8613994, -823, -686, 648, 283, -203, -198, 19, -12, 0, 0
1486724580.8614178, -827, -697, 645, 301, -219, -196, 21, -13, 0, 0
1486724580.8614368, -781, -681, 660, 291, -274, -196, 17, -13, 0, 0
1486724580.8614557, -770, -678, 662, 273, -274, -202, 13, -8, 0, 0
1486724580.8614743, -800, -678, 666, 262, -235, -192, 13, -15, 0, 0
1486724580.8614926, -833, -689, 668, 279, -218, -183, 18, -8, 0, 0
1486724580.8615112, -826, -691, 657, 294, -242, -192, 18, -15, 0, 0
1486724580.8615296, -789, -697, 667, 301, -270, -196, 22, -7, 0, 0
1486724580.861548, -798, -697, 681, 294, -261, -191, 22, -10, 0, 0
1486724580.8615665, -820, -689, 683, 284, -215, -196, 18, -7, 0, 0
1486724580.861585, -861, -697, 672, 303, -206, -190, 18, -12, 0, 0
1486724580.861603, -845, -712, 663, 325, -215, -186, 17, -14, 0, 0
1486724580.8616216, -815, -716, 673, 307, -269, -198, 16, -15, 0, 0
1486724580.8619456, -801, -705, 666, 287, -255, -192, 16, -10, 0, 0
1486724580.8619819, -837, -701, 674, 280, -221, -189, 19, -6, 0, 0
1486724580.8620458, -844, -705, 652, 306, -184, -184, 23, -11, 0, 0
1486724580.8620732, -832, -710, 663, 326, -220, -189, 20, -15, 0, 0
1486724580.8620942, -801, -697, 667, 301, -270, -196, 22, -8, 0, 0
1486724580.862144, -795, -699, 665, 263, -257, -191, 18, -11, 0, 0
1486724580.8621647, -821, -685, 662, 289, -209, -187, 17, -1, 0, 0
1486724580.862184, -843, -700, 672, 303, -206, -190, 18, -3, 0, 0
1486724580.862203, -824, -698, 657, 310, -248, -201, 23, -8, 0, 0
1486724580.8622217, -778, -690, 665, 291, -282, -197, 16, -15, 0, 0
1486724580.8622441, -773, -695, 660, 287, -255, -192, 16, -10, 0, 0
1486724580.8622653, -818, -685, 653, 267, -215, -190, 14, -11, 0, 0
1486724580.8622847, -834, -690, 643, 276, -206, -189, 17, -11, 0, 0
1486724580.8623056, -804, -689, 655, 296, -220, -189, 20, -15, 0, 0
1486724580.8623247, -771, -683, 646, 275, -284, -193, 18, -12, 0, 0
1486724580.8623438, -777, -677, 650, 269, -248, -185, 19, -13, 0, 0
1486724580.8623624, -806, -681, 645, 272, -204, -187, 17, -1, 0, 0
1486724580.862381, -818, -678, 634, 280, -218, -191, 17, -6, 0, 0
1486724580.8623998, -798, -688, 637, 282, -258, -186, 23, -10, 0, 0
1486724580.8624184, -746, -667, 638, 261, -287, -193, 16, -15, 0, 0
1486724580.8624368, -761, -668, 640, 255, -251, -190, 17, -7, 0, 0
1486724580.8624554, -791, -669, 626, 261, -214, -181, 14, -11, 0, 0
1486724580.8624737, -797, -683, 621, 280, -229, -189, 17, -5, 0, 0
1486724580.862492, -764, -679, 632, 283, -260, -195, 22, -12, 0, 0
1486724580.862858, -735, -675, 631, 271, -288, -196, 16, -16, 0, 0
1486724580.8628948, -749, -667, 633, 259, -236, -177, 15, -9, 0, 0
1486724580.8629193, -792, -671, 632, 273, -212, -179, 22, -4, 0, 0
1486724580.86294, -790, -677, 628, 283, -228, -189, 21, -4, 0, 0
1486724580.8629599, -762, -671, 632, 277, -272, -190, 21, -5, 0, 0
1486724580.8629787, -742, -665, 643, 262, -284, -196, 12, -11, 0, 0
1486724580.862998, -757, -665, 642, 267, -236, -180, 15, -7, 0, 0
1486724580.8630166, -791, -681, 627, 286, -202, -181, 14, -11, 0, 0
1486724580.8630357, -801, -688, 637, 297, -235, -190, 18, -10, 0, 0
1486724580.863054, -775, -687, 639, 286, -286, -191, 19, -14, 0, 0
1486724580.8630729, -760, -684, 648, 275, -264, -192, 20, -16, 0, 0
1486724580.8630917, -775, -681, 644, 283, -207, -186, 16, -6, 0, 0
1486724580.8631105, -798, -677, 646, 298, -203, -187, 17, -10, 0, 0
1486724580.8631349, -812, -689, 640, 291, -248, -190, 16, -3, 0, 0
1486724580.8631537, -767, -680, 648, 293, -280, -196, 23, -2, 0, 0
1486724580.863172, -750, -674, 647, 277, -277, -197, 14, -2, 0, 0
1486724580.8631902, -776, -671, 639, 275, -221, -186, 21, -10, 0, 0
1486724580.8632085, -805, -688, 630, 288, -200, -180, 24, -9, 0, 0
1486724580.8632307, -804, -686, 628, 296, -235, -193, 13, -21, 0, 0
1486724580.8632498, -766, -679, 640, 282, -286, -200, 18, -8, 0, 0
1486724580.8632681, -749, -673, 632, 259, -251, -190, 20, -12, 0, 0
1486724580.8632863, -781, -669, 629, 266, -214, -190, 18, -6, 0, 0
1486724580.8633041, -802, -671, 617, 271, -191, -187, 17, -10, 0, 0
1486724580.863659, -777, -671, 626, 278, -240, -191, 19, -7, 0, 0
1486724580.8636959, -762, -667, 649, 277, -276, -196, 22, -9, 0, 0
1486724580.8637204, -754, -663, 650, 271, -257, -187, 14, -2, 0, 0
1486724580.8637414, -778, -662, 638, 254, -239, -175, 24, 0, 0, 0
1486724580.8637614, -794, -667, 633, 268, -213, -182, 20, -5, 0, 0
1486724580.8637805, -779, -669, 641, 283, -256, -184, 20, -21, 0, 0
1486724580.8637996, -743, -663, 643, 262, -285, -191, 25, -5, 0, 0
1486724580.8638184, -750, -657, 639, 255, -255, -189, 26, 0, 0, 0
1486724580.8638403, -777, -658, 630, 255, -217, -186, 23, -4, 0, 0
1486724580.8638601, -777, -654, 625, 271, -213, -188, 13, 0, 0, 0
1486724580.86388, -765, -664, 632, 281, -260, -199, 18, -8, 0, 0
1486724580.8638985, -740, -656, 644, 260, -274, -195, 23, -3, 0, 0
1486724580.8639174, -744, -653, 639, 241, -258, -189, 17, -1, 0, 0
1486724580.8639374, -760, -651, 633, 256, -200, -180, 15, -1, 0, 0
1486724580.863957, -787, -651, 631, 264, -237, -187, 15, 1, 0, 0
1486724580.8639908, -779, -669, 641, 283, -256, -184, 20, 0, 0, 0
1486724580.86401, -731, -652, 634, 248, -292, -193, 25, -13, 0, 0
1486724580.8640292, -734, -639, 637, 229, -255, -174, 24, -5, 0, 0
1486724580.8640475, -764, -641, 626, 250, -217, -186, 23, -4, 0, 0
1486724580.8640687, -779, -651, 628, 261, -237, -183, 19, -12, 0, 0
1486724580.8640878, -739, -650, 635, 267, -264, -184, 24, -6, 0, 0
1486724580.864106, -709, -642, 636, 244, -293, -195, 23, -3, 0, 0
1486724580.8641243, -726, -642, 636, 228, -247, -189, 13, -9, 0, 0
1486724580.8644104, -757, -641, 635, 249, -207, -183, 12, -10, 0, 0
1486724580.864447, -759, -654, 633, 272, -225, -191, 15, 1, 0, 0
1486724580.864472, -739, -648, 637, 267, -281, -194, 21, -7, 0, 0
1486724580.864493, -724, -643, 642, 248, -292, -186, 25, -4, 0, 0
1486724580.8645124, -736, -632, 641, 234, -246, -179, 24, -5, 0, 0
1486724580.8645318, -768, -642, 630, 251, -213, -179, 13, -11, 0, 0
1486724580.8645558, -764, -636, 630, 264, -236, -183, 15, -10, 0, 0
1486724580.864575, -734, -650, 625, 261, -272, -189, 26, -6, 0, 0
1486724580.8645937, -730, -631, 640, 231, -274, -186, 22, -4, 0, 0
1486724580.8646123, -756, -634, 633, 222, -231, -181, 22, -8, 0, 0
1486724580.8646307, -774, -632, 618, 220, -219, -182, 20, -10, 0, 0
1486724580.8646495, -764, -641, 612, 241, -242, -190, 17, -5, 0, 0
1486724580.8646681, -735, -644, 625, 248, -283, -193, 18, -5, 0, 0
1486724580.8646865, -718, -634, 631, 238, -271, -184, 17, -7, 0, 0
1486724580.864705, -758, -647, 633, 236, -227, -179, 9, -8, 0, 0
1486724580.8647234, -785, -647, 627, 255, -197, -179, 16, -9, 0, 0
1486724580.8647444, -763, -651, 625, 264, -242, -183, 15, -10, 0, 0
1486724580.864765, -724, -647, 633, 263, -270, -184, 17, -15, 0, 0
1486724580.8647838, -716, -646, 628, 236, -263, -183, 16, -11, 0, 0
1486724580.8648024, -745, -639, 625, 228, -224, -181, 22, -8, 0, 0
1486724580.8648202, -773, -648, 622, 245, -204, -181, 10, -8, 0, 0
1486724580.8668995, -765, -648, 620, 260, -242, -183, 18, -9, 0, 0
1486724580.866937, -736, -644, 633, 248, -280, -183, 18, -5, 0, 0
1486724580.8669665, -714, -632, 636, 236, -264, -185, 16, -9, 0, 0
1486724580.866988, -759, -637, 626, 239, -225, -172, 14, -6, 0, 0
1486724580.8670077, -765, -642, 612, 250, -212, -176, 19, -9, 0, 0
1486724580.8670275, -747, -648, 612, 253, -257, -182, 22, -9, 0, 0
1486724580.8670692, -714, -642, 634, 254, -278, -181, 20, -8, 0, 0
1486724580.8671067, -720, -630, 634, 219, -262, -177, 19, -2, 0, 0
1486724580.8671267, -746, -630, 623, 228, -224, -179, 23, -2, 0, 0
1486724580.8671565, -754, -632, 623, 249, -218, -180, 19, -7, 0, 0
1486724580.8671854, -735, -626, 628, 268, -253, -188, 18, -9, 0, 0
1486724580.8672233, -700, -633, 636, 258, -275, -179, 19, -11, 0, 0
1486724580.8672528, -712, -625, 638, 232, -262, -175, 9, -8, 0, 0
1486724580.8672817, -740, -632, 625, 235, -214, -174, 11, -10, 0, 0
1486724580.8673098, -760, -635, 615, 243, -229, -180, 12, -8, 0, 0
1486724580.8673282, -728, -628, 625, 248, -268, -186, 19, -9, 0, 0
1486724580.8673468, -703, -630, 629, 237, -288, -180, 15, -9, 0, 0
1486724580.8673651, -716, -623, 627, 222, -248, -170, 16, -13, 0, 0
1486724580.8673837, -733, -617, 615, 223, -216, -166, 10, -8, 0, 0
1486724580.8674064, -760, -634, 617, 260, -220, -180, 19, -7, 0, 0
1486724580.8674264, -711, -624, 618, 261, -253, -183, 14, -11, 0, 0
1486724580.867445, -699, -620, 626, 236, -278, -181, 9, -6, 0, 0
1486724580.8674629, -690, -619, 611, 219, -235, -182, 7, -9, 0, 0
1486724580.8677986, -744, -627, 610, 228, -209, -172, 17, -5, 0, 0
1486724580.867835, -737, -617, 611, 243, -234, -179, 19, -13, 0, 0
1486724580.8678594, -708, -620, 612, 244, -277, -185, 13, -6, 0, 0
1486724580.8678808, -693, -615, 625, 232, -277, -177, 16, -3, 0, 0
1486724580.8679004, -712, -616, 621, 235, -219, -174, 11, -13, 0, 0
1486724580.86792, -739, -614, 606, 233, -208, -178, 10, -15, 0, 0
1486724580.8679388, -760, -634, 617, 260, -220, -173, 18, -14, 0, 0
1486724580.8679578, -678, -622, 612, 244, -280, -190, 11, -17, 0, 0
1486724580.8679767, -670, -614, 620, 218, -279, -179, 18, -11, 0, 0
1486724580.8679957, -697, -615, 611, 219, -235, -182, 7, -9, 0, 0
1486724580.8680143, -732, -611, 610, 238, -211, -170, 11, -15, 0, 0
1486724580.8680332, -722, -621, 598, 242, -239, -181, 13, -3, 0, 0
1486724580.868052, -670, -618, 612, 244, -277, -185, 13, -6, 0, 0
1486724580.868077, -677, -607, 617, 212, -276, -181, 11, -14, 0, 0
1486724580.8680992, -703, -600, 611, 205, -227, -168, 12, -9, 0, 0
1486724580.8681192, -727, -604, 590, 216, -208, -178, 10, -15, 0, 0
1486724580.8681386, -707, -609, 599, 231, -260, -184, 11, -14, 0, 0
1486724580.8681571, -679, -612, 614, 238, -283, -182, 17, -11, 0, 0
1486724580.8681767, -650, -591, 619, 216, -279, -179, 18, -11, 0, 0
1486724580.8681972, -696, -597, 610, 219, -236, -174, 6, -14, 0, 0
1486724580.8682158, -710, -604, 601, 239, -217, -174, 13, -15, 0, 0
1486724580.8682342, -696, -610, 596, 241, -3, -181, 13, -3, 0, 0
1486724580.8682754, -659, -601, 599, 228, -275, -182, 10, -10, 0, 0
1486724580.8686142, -664, -603, 611, 222, -253, -181, 12, -5, 0, 0
1486724580.868651, -698, -601, 595, 219, -219, -168, 12, -9, 0, 0
1486724580.868676, -714, -601, 593, 228, -216, -174, 14, -15, 0, 0
1486724580.868697, -692, -604, 592, 247, -248, -185, 21, -11, 0, 0
1486724580.8687165, -661, -603, 595, 223, -281, -180, 19, -15, 0, 0
1486724580.8687363, -651, -596, 595, 201, -262, -178, 9, -15, 0, 0
1486724580.868755, -695, -590, 600, 207, -217, -177, 16, -10, 0, 0
1486724580.8687742, -701, -601, 589, 220, -222, -178, 14, -6, 0, 0
1486724580.8687925, -676, -601, 596, 241, -258, -176, 18, -9, 0, 0
1486724580.8688116, -636, -587, 604, 229, -283, -191, 8, -19, 0, 0
1486724580.86883, -663, -600, 602, 198, -267, -176, 9, -4, 0, 0
1486724580.8688488, -694, -597, 590, 219, -201, -174, 11, -14, 0, 0
1486724580.868873, -700, -603, 588, 252, -217, -181, 11, -5, 0, 0
1486724580.8688922, -665, -588, 604, 226, -281, -185, 21, -11, 0, 0
1486724580.8689106, -622, -558, 597, 189, -300, -177, 22, -11, 0, 0
1486724580.868929, -619, -543, 576, 166, -260, -173, 17, -8, 0, 0
1486724580.8689475, -628, -525, 568, 164, -212, -174, 14, -10, 0, 0
1486724580.868966, -615, -505, 553, 159, -240, -173, 17, -8, 0, 0
1486724580.8689866, -569, -469, 558, 137, -292, -183, 12, -13, 0, 0
1486724580.8690057, -518, -431, 556, 103, -309, -181, 4, -10, 0, 0
1486724580.8690255, -510, -400, 550, 75, -274, -177, 4, -11, 0, 0
1486724580.8690462, -511, -374, 530, 70, -263, -172, 10, -3, 0, 0
1486724580.8690653, -491, -347, 528, 62, -280, -174, 12, -12, 0, 0
1486724580.8690858, -441, -321, 535, 46, -334, -175, 20, -16, 0, 0
1486724580.8694587, -397, -287, 527, 16, -331, -172, 18, -16, 0, 0
1486724580.8695183, -401, -260, 523, -19, -302, -164, 17, -8, 0, 0
1486724580.8695428, -410, -230, 510, -25, -292, -175, 13, -18, 0, 0
1486724580.869564, -386, -221, 515, -22, -326, -182, 12, -11, 0, 0
1486724580.869584, -344, -189, 518, -51, -374, -184, 16, -13, 0, 0
1486724580.8696036, -319, -173, 526, -81, -382, -171, 20, -17, 0, 0
1486724580.869623, -327, -146, 517, -109, -355, -169, 13, -13, 0, 0
1486724580.8696423, -335, -143, 510, -100, -335, -170, 12, -9, 0, 0
1486724580.8696613, -324, -128, 508, -107, -380, -177, 15, -11, 0, 0
1486724580.8696802, -277, -109, 523, -125, -428, -179, 13, -18, 0, 0
1486724580.869699, -266, -106, 519, -145, -416, -172, 18, -16, 0, 0
1486724580.8697183, -288, -92, 517, -149, -379, -174, 13, -12, 0, 0
1486724580.869737, -302, -98, 506, -130, -364, -176, 16, -9, 0, 0
1486724580.8697555, -290, -103, 506, -121, -406, -179, 13, -12, 0, 0
1486724580.869774, -259, -102, 519, -134, -433, -177, 15, -8, 0, 0
1486724580.8697925, -248, -97, 516, -149, -430, -174, 19, -12, 0, 0
1486724580.869811, -281, -105, 506, -154, -389, -172, 13, -10, 0, 0
1486724580.8698297, -296, -103, 498, -126, -376, -172, 15, -8, 0, 0
1486724580.869848, -283, -106, 496, -130, -420, -175, 19, -5, 0, 0
1486724580.8698661, -255, -109, 505, -140, -442, -181, 14, -6, 0, 0
1486724580.8698847, -266, -106, 519, -145, -416, -173, 8, -5, 0, 0
1486724580.8699028, -274, -95, 504, -146, -382, -169, 13, -15, 0, 0
1486724580.869945, -288, -103, 501, -128, -383, -172, 7, -16, 0, 0
1486724580.8702743, -260, -98, 509, -121, -406, -179, 13, -12, 0, 0
1486724580.870315, -150, -191, 356, 11, -237, -97, -2, -11, 0, 0
1486724580.8703399, -144, -189, 352, 21, -225, -95, 2, -8, 0, 0
1486724580.883315, -156, -200, 348, 27, -210, -102, 0, -10, 0, 0
1486724580.8834121, -166, -210, 348, 35, -213, -103, 0, -10, 0, 0
1486724580.8877294, -154, -203, 354, 41, -208, -100, -12, -20, 0, 0
1486724580.8973048, -155, -189, 369, 28, -228, -95, 4, -14, 0, 0
1486724580.8984091, -157, -180, 363, 13, -232, -102, -3, -3, 0, 0
1486724580.9014525, -154, -188, 353, 16, -220, -104, -1, -7, 0, 0
1486724580.9048126, -166, -190, 356, 28, -210, -96, 2, -12, 0, 0
1486724580.9053612, -162, -196, 367, 29, -215, -99, 4, -18, 0, 0
1486724580.9066699, -155, -184, 366, 9, -237, -97, -2, -11, 0, 0
1486724580.9207025, -153, -185, 367, 24, -224, -97, -1, -9, 0, 0
1486724580.9254854, -166, -196, 356, 21, -223, -98, -1, -8, 0, 0
1486724580.9255881, -161, -201, 344, 30, -212, -95, 0, -10, 0, 0
1486724580.934844, -143, -195, 363, 36, -217, -96, 0, -14, 0, 0
1486724580.9357939, -159, -201, 361, 20, -231, -98, -3, -16, 0, 0
1486724580.9373703, -145, -191, 357, 11, -228, -97, -3, -3, 0, 0
1486724580.9423068, -156, -197, 350, 22, -220, -99, -4, -12, 0, 0
1486724580.943329, -158, -205, 351, 52, -209, -98, -1, -2, 0, 0
1486724580.9450693, -154, -198, 361, 37, -231, -96, 4, -18, 0, 0
1486724580.9578338, -145, -188, 363, 25, -230, -92, -1, -10, 0, 0
1486724580.9588745, -154, -182, 362, 17, -234, -95, 0, -10, 0, 0
1486724580.9596083, -151, -190, 348, 36, -208, -94, 4, -16, 0, 0
1486724580.9722927, -156, -192, 347, 48, -198, -98, 5, -11, 0, 0
1486724580.9732754, -158, -199, 357, 29, -222, -94, 0, -13, 0, 0
1486724580.978091, -146, -189, 352, 11, -221, -98, -3, -16, 0, 0
1486724580.9797654, -158, -186, 355, 16, -218, -94, 2, -9, 0, 0
1486724580.9802039, -160, -187, 349, 18, -206, -98, -1, -17, 0, 0
1486724580.9820802, -155, -184, 348, 19, -218, -103, -1, -2, 0, 0
1486724580.994931, -140, -176, 355, 8, -235, -94, 2, -12, 0, 0
1486724580.9957027, -142, -160, 357, -21, -253, -95, -3, -11, 0, 0
1486724580.9976268, -147, -163, 351, -24, -246, -92, -5, -16, 0, 0
1486724581.0098927, -151, -159, 349, -11, -230, -97, -3, -15, 0, 0
1486724581.0108237, -154, -164, 344, 2, -226, -94, -3, -19, 0, 0
1486724581.0147364, -137, -163, 351, -9, -244, -96, -1, -10, 0, 0
1486724581.0173368, -153, -159, 358, -23, -258, -98, -2, -13, 0, 0
1486724581.0183444, -150, -165, 356, -19, -249, -100, -5, -6, 0, 0
1486724581.0201242, -145, -168, 345, 5, -224, -101, 0, -12, 0, 0
1486724581.0322032, -152, -171, 356, 15, -208, -95, 4, -13, 0, 0
1486724581.0330327, -143, -161, 361, -1, -235, -94, 0, -6, 0, 0
1486724581.0362768, -137, -160, 360, -22, -245, -95, -3, -11, 0, 0
1486724581.047275, -153, -163, 356, -18, -236, -93, -2, -6, 0, 0
1486724581.0482638, -147, -168, 352, -4, -231, -90, -4, -9, 0, 0
1486724581.0527442, -141, -175, 356, 23, -224, -94, -3, -19, 0, 0
1486724581.0547578, -140, -165, 354, 6, -217, -88, 3, -10, 0, 0
1486724581.0550718, -146, -161, 362, -8, -229, -86, -1, -13, 0, 0
1486724581.0581605, -156, -170, 353, -7, -232, -91, 0, -12, 0, 0
1486724581.0697646, -143, -171, 348, 10, -222, -95, -5, -9, 0, 0
1486724581.0707452, -145, -168, 353, -6, -243, -94, -3, -3, 0, 0
1486724581.0722818, -137, -159, 354, 3, -229, -94, -7, -4, 0, 0
1486724581.0922906, -136, -159, 362, -8, -247, -93, 1, -8, 0, 0
1486724581.0931606, -138, -160, 351, 0, -228, -91, 6, -5, 0, 0
1486724581.0936973, -148, -175, 348, 23, -221, -93, 0, -2, 0, 0
1486724581.0969698, -133, -175, 356, 23, -224, -102, -12, -12, 0, 0
1486724581.0998015, -131, -164, 353, -4, -245, -96, -8, -5, 0, 0
1486724581.1007395, -131, -159, 359, -11, -246, -94, -6, -16, 0, 0
1486724581.1027017, -131, -166, 345, 5, -232, -91, 0, -12, 0, 0
1486724581.1074347, -135, -164, 341, 12, -219, -97, -1, -12, 0, 0
1486724581.1078875, -135, -171, 362, 16, -221, -105, -1, -2, 0, 0
1486724581.1135364, -143, -165, 362, 2, -229, -94, -7, -4, 0, 0
1486724581.122263, -128, -160, 355, -6, -235, -99, 0, -9, 0, 0
1486724581.1232612, -139, -158, 345, -18, -219, -97, 2, -3, 0, 0
1486724581.1245127, -146, -169, 362, 24, -211, -93, 0, -2, 0, 0
1486724581.1307611, -140, -163, 359, 27, -210, -93, -3, -19, 0, 0
1486724581.1319685, -144, -163, 359, 7, -225, -89, -3, -14, 0, 0
1486724581.1320386, -153, -159, 359, -3, -224, -95, -6, -16, 0, 0
1486724581.145371, -156, -165, 353, 15, -204, -90, 8, -7, 0, 0
1486724581.146696, -141, -161, 350, 13, -205, -86, 8, -13, 0, 0
1486724581.1469877, -137, -166, 362, 19, -226, -94, 2, -18, 0, 0
1486724581.159774, -142, -155, 368, 3, -232, -95, 5, -10, 0, 0
1486724581.1607552, -136, -163, 355, 0, -229, -90, 3, -4, 0, 0
1486724581.1614215, -138, -162, 356, 1, -225, -90, 4, -9, 0, 0
1486724581.1681857, -139, -163, 355, 28, -209, -95, -5, -8, 0, 0
1486724581.1704667, -140, -166, 364, 20, -220, -92, 1, -15, 0, 0
1486724581.1705384, -140, -165, 370, 6, -238, -97, 0, -9, 0, 0
1486724581.1822805, -144, -156, 360, -10, -218, -80, 0, -14, 0, 0
1486724581.1825788, -156, -167, 346, 14, -213, -93, -3, -9, 0, 0
1486724581.1854112, -147, -171, 353, 10, -225, -86, 8, -13, 0, 0
1486724581.1973255, -133, -162, 353, 23, -215, -92, 1, -12, 0, 0
1486724581.1982157, -137, -160, 361, 4, -233, -98, -1, -14, 0, 0
1486724581.198496, -141, -149, 352, -6, -215, -90, 3, -4, 0, 0
1486724581.2057335, -137, -159, 332, 11, -212, -98, 7, -10, 0, 0
1486724581.205805, -135, -162, 342, 20, -205, -89, 2, -14, 0, 0
1486724581.2061539, -130, -164, 352, 13, -218, -90, 1, -15, 0, 0
1486724581.219656, -129, -161, 356, -7, -225, -90, 2, -9, 0, 0
1486724581.2199476, -131, -156, 337, -5, -221, -95, 3, -5, 0, 0
1486724581.2245202, -132, -158, 338, 14, -210, -91, 4, -13, 0, 0
1486724581.2347956, -133, -164, 340, 22, -204, -86, 10, -4, 0, 0
1486724581.2355883, -130, -163, 346, 13, -214, -86, 8, -15, 0, 0
1486724581.2381363, -131, -160, 342, -5, -211, -89, 8, -1, 0, 0
1486724581.2423286, -134, -154, 339, 5, -205, -94, 6, -3, 0, 0
1486724581.2432103, -137, -159, 335, 19, -203, -87, 1, -12, 0, 0
1486724581.2461824, -131, -171, 338, 25, -200, -89, -4, -11, 0, 0
1486724581.2573478, -131, -165, 347, 5, -218, -93, -1, -9, 0, 0
1486724581.2583086, -133, -165, 340, -11, -230, -88, 1, -15, 0, 0
1486724581.259372, -137, -151, 339, 5, -207, -88, 0, -9, 0, 0
1486724581.273035, -141, -166, 330, 28, -193, -97, -3, -12, 0, 0
1486724581.2739058, -133, -160, 347, 22, -214, -95, -5, -12, 0, 0
1486724581.27395, -129, -157, 352, 6, -228, -86, 8, -15, 0, 0
1486724581.279758, -128, -151, 350, -3, -229, -93, -4, -17, 0, 0
1486724581.2807496, -129, -159, 341, 15, -201, -92, -6, -9, 0, 0
1486724581.281898, -141, -163, 334, 23, -200, -92, 4, -12, 0, 0
1486724581.2957437, -130, -171, 337, 30, -196, -95, 3, -4, 0, 0
1486724581.2964985, -125, -160, 348, 11, -231, -94, 0, -9, 0, 0
1486724581.2965684, -124, -163, 342, 7, -205, -86, 3, -10, 0, 0
1486724581.3098052, -123, -164, 324, 13, -214, -101, 2, -12, 0, 0
1486724581.3106403, -122, -164, 325, 24, -202, -91, 0, -9, 0, 0
1486724581.3119924, -126, -162, 353, 28, -210, -92, -4, -10, 0, 0
1486724581.3173313, -125, -168, 340, 5, -226, -79, -1, -11, 0, 0
1486724581.3179967, -127, -157, 342, -4, -221, -88, -5, -17, 0, 0
1486724581.3188338, -129, -167, 328, 13, -208, -95, -5, -11, 0, 0
1486724581.3229632, -123, -163, 334, 23, -200, -92, 4, -12, 0, 0
1486724581.3322608, -120, -162, 343, 22, -214, -92, 1, -16, 0, 0
1486724581.3332589, -127, -165, 347, -5, -221, -91, -4, -15, 0, 0
1486724581.333724, -125, -163, 342, 7, -205, -86, 3, -10, 0, 0
1486724581.3481069, -139, -167, 330, 14, -205, -97, -4, -7, 0, 0
1486724581.3506107, -143, -174, 327, 33, -202, -92, -9, -10, 0, 0
1486724581.350681, -130, -173, 333, 28, -210, -92, -4, -10, 0, 0
1486724581.3547537, -125, -167, 337, -3, -224, -85, 4, -12, 0, 0
1486724581.355784, -132, -160, 331, 11, -207, -92, 1, -10, 0, 0
1486724581.3581216, -120, -158, 320, 20, -208, -95, -5, -11, 0, 0
1486724581.3698077, -124, -167, 331, 32, -200, -92, 0, -7, 0, 0
1486724581.370773, -120, -164, 338, 22, -207, -90, 0, -11, 0, 0
1486724581.3719714, -128, -164, 338, 5, -221, -91, -4, -15, 0, 0
1486724581.3847773, -131, -160, 342, 6, -214, -87, 13, -13, 0, 0
1486724581.385752, -129, -169, 324, 21, -208, -84, 3, -7, 0, 0
1486724581.387256, -123, -170, 331, 30, -199, -92, -9, -10, 0, 0
1486724581.3922439, -138, -171, 340, 18, -205, -82, 2, -15, 0, 0
1486724581.393169, -131, -163, 337, 6, -216, -91, 3, -5, 0, 0
1486724581.3940187, -137, -161, 335, 1, -222, -97, 1, -10, 0, 0
1486724581.4073808, -127, -159, 323, 14, -194, -103, -2, -14, 0, 0
1486724581.4081674, -126, -166, 329, 14, -202, -94, 0, -9, 0, 0
1486724581.408819, -123, -151, 334, -7, -220, -93, 254, -11, 0, 0
1486724581.4224408, -119, -159, 328, -13, -222, -83, 6, -13, 0, 0
1486724581.4231877, -134, -159, 328, -1, -216, -90, 8, -13, 0, 0
1486724581.4238837, -136, -167, 329, 14, -202, -95, 1, -7, 0, 0
1486724581.4299026, -136, -169, 340, 40, -195, -87, -6, -29, 0, 0
1486724581.4306865, -137, -167, 349, 19, -215, -84, 1, -20, 0, 0
1486724581.4312975, -151, -166, 347, 2, -214, -87, 0, -9, 0, 0
1486724581.444833, -137, -164, 337, 34, -178, -89, 1, -12, 0, 0
1486724581.4451816, -138, -170, 324, 29, -182, -85, -1, -6, 0, 0
1486724581.4482725, -131, -164, 336, 28, -192, -94, 0, -9, 0, 0
1486724581.4598532, -126, -166, 339, 15, -205, -83, 0, -16, 0, 0
1486724581.4607222, -127, -159, 335, -5, -209, -89, 0, -13, 0, 0
1486724581.464224, -134, -164, 333, 5, -201, -91, 8, -13, 0, 0
1486724581.467111, -131, -159, 325, 13, -192, -89, -5, -11, 0, 0
1486724581.467464, -128, -165, 324, 24, -194, -95, -10, -11, 0, 0
1486724581.468919, -126, -164, 345, 17, -212, -84, 253, -20, 0, 0
1486724581.4823956, -124, -164, 330, -9, -217, -92, -4, -11, 0, 0
1486724581.4832685, -136, -171, 325, 20, -200, -87, -7, -6, 0, 0
1486724581.487277, -128, -167, 327, 37, -188, -79, -2, -9, 0, 0
1486724581.5014732, -122, -171, 329, 42, -195, -94, -6, -7, 0, 0
1486724581.5015547, -124, -160, 338, 13, -213, -87, -6, -9, 0, 0
1486724581.5015843, -125, -160, 331, 4, -210, -89, -6, -3, 0, 0
1486724581.5047426, -129, -167, 330, 29, -189, -84, 0, -12, 0, 0
1486724581.5052834, -122, -168, 322, 51, -174, -87, 2, -11, 0, 0
1486724581.5062418, -113, -162, 330, 33, -198, -89, -10, -11, 0, 0
1486724581.5197692, -114, -164, 339, 8, -219, -88, 1, -8, 0, 0
1486724581.5207572, -126, -162, 328, 15, -210, -85, -3, -15, 0, 0
1486724581.5241485, -110, -159, 320, 24, -199, -98, -7, -6, 0, 0
1486724581.5348604, -120, -169, 320, 30, -195, -97, -5, -13, 0, 0
1486724581.5355816, -108, -160, 330, 39, -200, -85, 5, -9, 0, 0
1486724581.538834, -106, -154, 325, 1, -234, -81, 2, -9, 0, 0
1486724581.5423946, -114, -159, 314, -4, -220, -86, 0, -15, 0, 0
1486724581.5428252, -130, -177, 314, 28, -199, -89, 1, -10, 0, 0
1486724581.5439122, -118, -173, 323, 48, -193, -82, 2, -11, 0, 0
1486724581.544937, -113, -162, 330, 33, -198, -89, -1, -11, 0, 0
1486724581.5580597, -127, -166, 334, 3, -220, -84, 4, -7, 0, 0
1486724581.5581276, -123, -158, 330, 10, -207, -89, -1, -10, 0, 0
1486724581.5624456, -122, -165, 320, 24, -199, -98, 0, -12, 0, 0
1486724581.5723252, -124, -166, 323, 37, -191, -84, 1, -10, 0, 0
1486724581.573203, -118, -166, 333, 14, -227, -87, -5, -4, 0, 0
1486724581.5789278, -120, -161, 325, 1, -234, -81, 2, -6, 0, 0
1486724581.5800018, -118, -164, 314, 19, -198, -94, 3, -11, 0, 0
1486724581.580665, -124, -163, 330, 33, -199, -95, 1, -5, 0, 0
1486724581.5844908, -118, -173, 323, 48, -193, -82, 2, -11, 0, 0
1486724581.5957806, -117, -164, 338, 24, -200, -89, 3, -12, 0, 0
1486724581.595877, -117, -164, 330, 11, -208, -83, -2, -17, 0, 0
1486724581.59876, -123, -169, 325, 10, -207, -89, -1, -10, 0, 0
1486724581.6098511, -121, -172, 318, 34, -185, -86, 4, -9, 0, 0
1486724581.610759, -119, -170, 323, 53, -187, -83, -3, -11, 0, 0
1486724581.6123393, -111, -167, 333, 25, -209, -87, -5, -4, 0, 0
1486724581.617425, -117, -158, 339, 17, -212, -85, -5, -11, 0, 0
1486724581.6182353, -110, -159, 326, 20, -200, -91, -6, -9, 0, 0
1486724581.6218102, -136, -177, 317, 36, -191, -95, 1, -5, 0, 0
1486724581.6324003, -118, -172, 317, 35, -181, -84, -3, -5, 0, 0
1486724581.6333058, -118, -155, 332, 14, -205, -88, 0, -3, 0, 0
1486724581.6346714, -108, -157, 319, 9, -206, -84, -2, -17, 0, 0
1486724581.6473339, -125, -165, 318, 30, -192, -88, 6, -5, 0, 0
1486724581.648039, -119, -166, 316, 40, -189, -91, 0, -12, 0, 0
1486724581.6532333, -100, -164, 313, 31, -190, -89, -3, -11, 0, 0
1486724581.654692, -115, -155, 335, 29, -212, -89, -7, -7, 0, 0
1486724581.6556978, -126, -159, 319, 1, -212, -87, -5, -8, 0, 0
1486724581.6561363, -107, -153, 310, 19, -205, -87, -6, -6, 0, 0
1486724581.6698406, -117, -158, 314, 17, -203, -89, -1, -4, 0, 0
1486724581.6706421, -113, -176, 321, 27, -195, -87, 3, -5, 0, 0
1486724581.672829, -104, -155, 316, 17, -214, -79, 2, -11, 0, 0
1486724581.6848488, -107, -164, 313, 4, -209, -83, 3, -11, 0, 0
1486724581.6857746, -117, -173, 299, 22, -187, -86, 1, -7, 0, 0
1486724581.6881216, -110, -174, 297, 22, -185, -79, 0, -12, 0, 0
1486724581.6923141, -109, -175, 318, 38, -187, -83, 0, -11, 0, 0
1486724581.6932347, -111, -160, 335, 6, -221, -86, 2, -11, 0, 0
1486724581.69549, -114, -152, 319, 8, -213, -86, -6, -15, 0, 0
1486724581.7075398, -110, -160, 310, 28, -190, -85, 0, -17, 0, 0
1486724581.708041, -124, -170, 324, 40, -191, -89, -3, -5, 0, 0
1486724581.7103097, -121, -165, 330, 25, -203, -84, 4, -7, 0, 0
1486724581.7222803, -116, -160, 328, 6, -215, -89, 6, -10, 0, 0
1486724581.7226691, -116, -162, 311, 5, -208, -93, 0, -15, 0, 0
1486724581.7271285, -116, -162, 301, 6, -191, -86, 1, -7, 0, 0
1486724581.7298415, -108, -155, 303, 12, -200, -82, 2, -16, 0, 0
1486724581.7306204, -105, -154, 312, 12, -203, -84, 1, -15, 0, 0
1486724581.7324219, -101, -148, 308, -23, -229, -88, 4, -11, 0, 0
1486724581.7450771, -104, -156, 311, -6, -215, -82, 5, -10, 0, 0
1486724581.7455547, -104, -156, 301, 16, -196, -91, 1, -7, 0, 0
1486724581.7459223, -110, -163, 309, 29, -179, -79, 3, -6, 0, 0
1486724581.7598186, -111, -157, 317, 2, -213, -84, 1, -13, 0, 0
1486724581.760794, -113, -151, 323, 4, -207, -75, 4, -14, 0, 0
1486724581.761546, -106, -154, 311, 11, -197, -93, 0, -15, 0, 0
1486724581.7673185, -119, -167, 307, 30, -186, -81, 6, -17, 0, 0
1486724581.7681918, -90, -160, 316, 36, -190, -88, 3, -9, 0, 0
1486724581.7695131, -102, -158, 323, 19, -206, -75, 2, -15, 0, 0
1486724581.7825453, -101, -153, 320, 8, -198, -88, 1, -7, 0, 0
1486724581.7826161, -113, -152, 317, 16, -192, -82, 0, -10, 0, 0
1486724581.7852695, -102, -165, 311, 34, -182, -92, -2, -7, 0, 0
1486724581.7973788, -109, -163, 322, 40, -187, -80, -3, -15, 0, 0
1486724581.798347, -105, -153, 334, 27, -195, -86, 1, -15, 0, 0
1486724581.79873, -110, -155, 329, 16, -201, -86, 2, -14, 0, 0
1486724581.8051054, -127, -160, 323, 19, -181, -81, 8, -13, 0, 0
1486724581.806418, -138, -169, 320, 46, -163, -76, 0, -14, 0, 0
1486724581.8066964, -130, -165, 341, 50, -178, -84, -7, -17, 0, 0
1486724581.8067415, -120, -158, 323, 19, -206, -75, 2, -13, 0, 0
1486724581.819942, -125, -165, 329, 2, -205, -86, -2, -20, 0, 0
1486724581.8207765, -127, -163, 322, 29, -184, -87, 0, -14, 0, 0
1486724581.8217585, -131, -169, 316, 34, -182, -92, -2, -8, 0, 0
1486724581.834848, -122, -170, 325, 32, -206, -87, 6, -10, 0, 0
1486724581.8355215, -118, -159, 329, 19, -196, -87, -2, -18, 0, 0
1486724581.8379035, -124, -165, 324, 26, -201, -86, 2, -14, 0, 0
1486724581.8423052, -131, -167, 312, 33, -178, -88, -3, -15, 0, 0
1486724581.8431957, -135, -175, 316, 39, -187, -94, 2, -15, 0, 0
1486724581.8490484, -132, -172, 328, 37, -178, -84, -7, -17, 0, 0
1486724581.8573284, -116, -160, 326, 6, -206, -84, 3, -7, 0, 0
1486724581.858273, -125, -161, 331, 8, -192, -87, 5, -12, 0, 0
1486724581.8585556, -130, -167, 319, 27, -182, -87, 0, -14, 0, 0
1486724581.8722878, -127, -170, 326, 41, -181, -88, 3, -10, 0, 0
1486724581.873155, -133, -168, 329, 18, -204, -88, -1, -17, 0, 0
1486724581.875363, -115, -152, 327, -1, -212, -87, -2, -18, 0, 0
1486724581.879812, -128, -156, 320, -3, -205, -82, 4, -7, 0, 0
1486724581.880753, -124, -162, 319, 24, -190, -86, 1, -8, 0, 0
1486724581.8845458, -131, -186, 324, 52, -188, -88, -2, -15, 0, 0
1486724581.8955367, -119, -179, 322, 57, -177, -78, -3, -17, 0, 0
1486724581.8967648, -115, -175, 321, 39, -198, -81, 1, -11, 0, 0
1486724581.897466, -124, -178, 311, 29, -188, -87, 5, -12, 0, 0
1486724581.9098809, -128, -179, 314, 43, -174, -88, -8, -12, 0, 0
1486724581.9107385, -131, -182, 316, 56, -164, -81, -1, 0, 0, 0
1486724581.9129994, -116, -182, 319, 40, -185, -78, -1, -17, 0, 0
1486724581.9173255, -118, -172, 321, 28, -194, -85, -2, -12, 0, 0
1486724581.918221, -120, -181, 310, 33, -180, -82, 0, -10, 0, 0
1486724581.9194927, -116, -177, 311, 51, -177, -85, 0, -252, 0, 0
1486724581.9323282, -109, -186, 312, 55, -162, -82, -3, -9, 0, 0
1486724581.933273, -123, -181, 315, 37, -187, -81, -1, -1, 0, 0
1486724581.9368043, -117, -182, 315, 25, -186, -81, 1, -11, 0, 0
1486724581.9473293, -139, -181, 312, 26, -186, -84, -1, -9, 0, 0
1486724581.9483144, -136, -186, 309, 41, -173, -79, -1, -14, 0, 0
1486724581.9496264, -125, -186, 317, 50, -170, -79, 3, 242, 0, 0
1486724581.9547496, -126, -173, 329, 39, -192, -85, 0, -4, 0, 0
1486724581.9551148, -120, -166, 324, 28, -195, -91, 5, -12, 0, 0
1486724581.9565854, -121, -184, 309, 38, -173, -83, -2, -13, 0, 0
1486724581.9699695, -119, -184, 308, 64, -156, -82, 4, -15, 0, 0
1486724581.9707236, -126, -187, 323, 63, -177, -88, -1, -1, 0, 0
1486724581.9724162, -125, -176, 330, 36, -196, -80, -1, -19, 0, 0
1486724581.9852602, -121, -174, 321, 45, -175, -78, 8, -9, 0, 0
1486724581.9856448, -132, -178, 318, 46, -171, -85, -7, -13, 0, 0
1486724581.986816, -128, -182, 313, 45, -168, -79, -1, -14, 0, 0
1486724581.9925954, -131, -178, 324, 48, -168, -83, -1, -13, 0, 0
1486724581.993153, -123, -166, 327, 28, -194, -85, 5, -8, 0, 0
1486724581.9940963, -135, -172, 325, 27, -185, -76, 5, -12, 0, 0
1486724582.007214, -130, -186, 315, 45, -159, -78, 4, -9, 0, 0
1486724582.0079508, -129, -178, 309, 58, -154, -79, 0, -10, 0, 0
1486724582.0082173, -119, -180, 316, 55, -169, -83, -9, -1, 0, 0
1486724582.0227103, -131, -184, 323, 34, -179, -83, -3, -13, 0, 0
1486724582.023174, -138, -176, 317, 42, -172, -84, -1, -12, 0, 0
1486724582.0241, -145, -178, 314, 45, -168, -77, -7, -17, 0, 0
1486724582.0298686, -139, -190, 309, 58, -151, -84, -10, -21, 0, 0
1486724582.0307858, -132, -181, 323, 50, -164, -89, -13, -12, 0, 0
1486724582.0321126, -141, -180, 328, 32, -174, -81, -9, -9, 0, 0
1486724582.0448217, -127, -173, 320, 32, -168, -83, -6, -14, 0, 0
1486724582.0456398, -149, -184, 312, 43, -160, -84, -7, -12, 0, 0
1486724582.0462615, -146, -187, 309, 61, -142, -81, -3, -16, 0, 0
1486724582.0489013, -119, -180, 316, 55, -169, -83, -9, -12, 0, 0
1486724582.0599153, -131, -177, 320, 22, -182, -78, -3, -20, 0, 0
1486724582.0608108, -144, -183, 300, 14, -177, -77, -2, -6, 0, 0
1486724582.0649054, -145, -178, 314, 45, -168, -77, -7, -17, 0, 0
1486724582.0673103, -135, -175, 308, 41, -154, -77, 1, -17, 0, 0
1486724582.0682209, -135, -175, 317, 40, -165, -78, 2, -11, 0, 0
1486724582.0702326, -125, -173, 328, 32, -174, -81, -9, -9, 0, 0
1486724582.0823622, -129, -167, 310, 19, -175, -80, -3, -17, 0, 0
1486724582.083312, -115, -167, 301, 41, -155, -78, -8, -12, 0, 0
1486724582.0861537, -126, -178, 298, 61, -142, -81, -3, -16, 0, 0
1486724582.0982544, -118, -166, 314, 33, -179, -80, -1, -13, 0, 0
1486724582.10247, -127, -181, 307, 22, -182, -72, -4, -19, 0, 0
1486724582.1025426, -127, -178, 297, 29, -177, -77, -2, -6, 0, 0
1486724582.10479, -124, -182, 292, 41, -168, -77, -4, -14, 0, 0
1486724582.105946, -121, -179, 304, 38, -167, -75, -5, -14, 0, 0
1486724582.1077278, -124, -175, 311, 12, -165, -78, 2, -11, 0, 0
1486724582.1199043, -118, -171, 309, 16, -190, -81, 3, -15, 0, 0
1486724582.1228747, -124, -169, 294, 11, -181, -79, 3, -11, 0, 0
1486724582.1277657, -137, -174, 305, 39, -155, -78, -8, -12, 0, 0
1486724582.1348765, -124, -187, 291, 38, -172, -80, 2, -16, 0, 0
1486724582.1355605, -118, -177, 304, 20, -190, -74, 1, -4, 0, 0
1486724582.1378114, -115, -168, 311, 21, -186, -72, -4, -19, 0, 0
1486724582.1421373, -120, -173, 292, 10, -192, -75, 3, -11, 0, 0
1486724582.1426084, -119, -177, 293, 41, -163, -83, -8, -22, 0, 0
1486724582.1434286, -117, -176, 300, 36, -175, -75, -5, -14, 0, 0
1486724582.1573322, -105, -165, 299, 21, -186, -76, 5, -25, 0, 0
1486724582.1580417, -121, -164, 298, -4, -195, -77, 3, -16, 0, 0
1486724582.1587987, -121, -167, 290, 18, -179, -80, 4, -9, 0, 0
1486724582.172338, -122, -175, 291, 42, -159, -88, -9, -16, 0, 0
1486724582.1732974, -111, -176, 297, 32, -171, -77, -3, -13, 0, 0
1486724582.1752725, -116, -162, 303, 1, -190, -79, 1, -13, 0, 0
1486724582.179819, -116, -165, 295, 5, -192, -85, -2, -15, 0, 0
1486724582.1802402, -117, -164, 292, 21, -175, -82, -7, -14, 0, 0
1486724582.1854393, -120, -168, 291, 39, -156, -73, -4, -11, 0, 0
1486724582.1955962, -116, -170, 297, 34, -168, -69, -4, -16, 0, 0
1486724582.1981575, -110, -159, 308, 14, -187, -70, 4, -5, 0, 0
1486724582.198228, -127, -159, 311, 15, -190, -74, 3, -16, 0, 0
1486724582.2101874, -118, -161, 295, 19, -175, -72, 8, -16, 0, 0
1486724582.2105634, -113, -164, 302, 40, -174, -70, -2, -17, 0, 0
1486724582.2119603, -100, -165, 305, 38, -174, -78, -12, -13, 0, 0
1486724582.2173843, -110, -166, 306, 14, -191, -80, -8, -18, 0, 0
1486724582.218204, -120, -167, 293, 14, -185, -76, -1, -18, 0, 0
1486724582.220137, -119, -167, 299, 26, -172, -74, -8, -25, 0, 0
1486724582.2323563, -104, -170, 301, 45, -162, -77, 4, -9, 0, 0
1486724582.2327273, -111, -169, 305, 37, -187, -72, 0, -11, 0, 0
1486724582.2378402, -103, -156, 312, 16, -190, -70, 4, -5, 0, 0
1486724582.247301, -116, -165, 305, 26, -173, -78, 0, -19, 0, 0
1486724582.248216, -113, -173, 297, 32, -168, -78, 0, -16, 0, 0
1486724582.2501523, -125, -177, 295, 30, -159, -79, -3, -17, 0, 0
1486724582.2578917, -108, -168, 304, 24, -182, -76, -4, -4, 0, 0
1486724582.2579658, -114, -161, 308, 2, -197, -80, -7, -13, 0, 0
1486724582.2579925, -118, -167, 302, 22, -171, -78, -5, -22, 0, 0
1486724582.2699637, -114, -168, 291, 34, -160, -79, -8, -20, 0, 0
1486724582.2707677, -117, -170, 295, 45, -169, -78, -6, -22, 0, 0
1486724582.271397, -111, -171, 308, 28, -192, -79, -3, -15, 0, 0
1486724582.2848294, -105, -163, 308, 14, -208, -75, 1, -16, 0, 0
1486724582.2854912, -105, -166, 301, 17, -182, -76, -3, -21, 0, 0
1486724582.2863789, -117, -170, 303, 57, -154, -77, 2, -16, 0, 0
1486724582.2873452, -113, -177, 295, 30, -159, -79, -3, -11, 0, 0
1486724582.2923641, -110, -169, 306, 35, -189, -82, 2, -13, 0, 0
1486724582.2947085, -95, -166, 301, 13, -201, -79, -1, -17, 0, 0
1486724582.308263, -101, -171, 285, 22, -170, -81, -7, -18, 0, 0
1486724582.3108478, -118, -182, 288, 36, -169, -80, -1, -18, 0, 0
1486724582.3109176, -95, -170, 283, 30, -173, -77, -3, -14, 0, 0
1486724582.3224058, -97, -163, 295, 13, -193, -74, -8, -15, 0, 0
1486724582.3232353, -103, -163, 295, 22, -184, -79, -2, -14, 0, 0
1486724582.3236995, -103, -173, 283, 44, -156, -72, -2, -15, 0, 0
1486724582.327151, -97, -178, 303, 57, -154, -77, 2, -16, 0, 0
1486724582.3299, -103, -176, 294, 46, -173, -83, -4, -14, 0, 0
1486724582.3308094, -101, -160, 291, 5, -183, -68, 6, -17, 0, 0
1486724582.3325932, -106, -161, 302, 2, -201, -79, -1, -17, 0, 0
1486724582.3452332, -107, -191, 280, 60, -155, -75, -1, -12, 0, 0
1486724582.3469684, -138, -223, 284, 89, -122, -82, -1, -14, 0, 0
1486724582.348154, -136, -219, 300, 95, -135, -77, -3, -14, 0, 0
1486724582.3597806, -159, -230, 311, 96, -125, -74, 2, -15, 0, 0
1486724582.360807, -193, -259, 318, 103, -123, -76, 1, -9, 0, 0
1486724582.3640738, -218, -268, 323, 136, -87, -73, -2, -15, 0, 0
1486724582.3674006, -239, -289, 330, 167, -72, -75, 3, -4, 0, 0
1486724582.368163, -261, -314, 348, 177, -68, -81, 0, -13, 0, 0
1486724582.3687959, -287, -322, 363, 185, -65, -76, -4, -17, 0, 0
1486724582.3832917, -304, -336, 359, 198, -48, -74, 2, -9, 0, 0
1486724582.384171, -325, -356, 363, 223, -21, -73, -4, -15, 0, 0
1486724582.3842447, -330, -371, 370, 251, -14, -70, -3, -21, 0, 0
1486724582.3973525, -342, -386, 385, 256, -9, -74, -6, -21, 0, 0
1486724582.3982608, -358, -386, 395, 248, -27, -72, -5, -22, 0, 0
1486724582.4007642, -349, -387, 379, 244, -13, -76, 1, -9, 0, 0
1486724582.4048767, -356, -395, 376, 262, -16, -81, -1, -10, 0, 0
1486724582.4051106, -365, -397, 382, 292, 4, -81, -11, -24, 0, 0
1486724582.4058862, -343, -381, 373, 254, -23, -69, 0, -13, 0, 0
1486724582.419874, -323, -388, 361, 238, -31, -71, -2, -20, 0, 0
1486724582.420617, -322, -385, 351, 242, -28, -73, -3, -17, 0, 0
1486724582.422122, -318, -391, 341, 259, -17, -72, -4, -24, 0, 0
1486724582.4348893, -311, -383, 340, 254, -15, -76, 0, -13, 0, 0
1486724582.43578, -310, -387, 352, 249, -33, -69, 3, -15, 0, 0
1486724582.4394414, -306, -381, 348, 228, -48, -72, -5, -22, 0, 0
1486724582.4424226, -301, -388, 328, 236, -47, -78, 0, -15, 0, 0
1486724582.4433072, -303, -389, 329, 254, -22, -80, -2, -14, 0, 0
1486724582.4445562, -292, -387, 326, 247, -37, -76, -11, -24, 0, 0
1486724582.4573483, -277, -373, 333, 229, -53, -77, -1, -12, 0, 0
1486724582.4579113, -295, -380, 334, 223, -62, -81, -6, -3, 0, 0
1486724582.4581723, -288, -379, 316, 217, -39, -73, 7, -13, 0, 0
1486724582.4724126, -281, -380, 310, 245, -20, -71, 5, -12, 0, 0
1486724582.4732285, -274, -383, 310, 239, -29, -69, 3, -17, 0, 0
1486724582.4740813, -271, -377, 315, 221, -59, -63, -1, -10, 0, 0
1486724582.4798212, -273, -372, 319, 213, -53, -71, -5, -10, 0, 0
1486724582.4801812, -267, -375, 308, 225, -42, -76, -2, -6, 0, 0
1486724582.4811127, -274, -386, 310, 240, -39, -80, -2, -14, 0, 0
1486724582.4970143, -273, -381, 305, 212, -43, -80, -3, -9, 0, 0
1486724582.497095, -265, -372, 315, 218, -58, -79, -9, -5, 0, 0
1486724582.4971216, -259, -375, 317, 213, -62, -81, -11, -3, 0, 0
1486724582.509907, -263, -374, 308, 224, -46, -75, 4, -8, 0, 0
1486724582.510907, -270, -382, 310, 236, -51, -79, -9, -18, 0, 0
1486724582.5128887, -272, -382, 317, 231, -56, -73, -3, -13, 0, 0
1486724582.5174391, -252, -373, 313, 223, -61, -73, -4, -13, 0, 0
1486724582.5183153, -255, -375, 310, 209, -71, -71, 4, -15, 0, 0
1486724582.5185823, -252, -376, 292, 219, -55, -81, -5, -10, 0, 0
1486724582.5323243, -247, -374, 299, 230, -44, -74, -7, -10, 0, 0
1486724582.5333252, -252, -374, 311, 224, -63, -77, -17, -24, 0, 0
1486724582.5337098, -235, -369, 310, 212, -74, -79, -4, -18, 0, 0
1486724582.5343223, -259, -375, 317, 213, -62, -81, -11, -9, 0, 0
1486724582.5473404, -249, -367, 299, 223, -52, -69, -3, -17, 0, 0
1486724582.5484278, -248, -372, 298, 226, -67, -74, -10, -16, 0, 0
1486724582.5501544, -241, -373, 306, 231, -56, -73, -3, -13, 0, 0
1486724582.5553162, -239, -359, 299, 209, -72, -67, 1, -12, 0, 0
1486724582.5589023, -236, -358, 289, 195, -70, -71, -3, -23, 0, 0
1486724582.569961, -235, -369, 287, 217, -50, -79, -6, -17, 0, 0
1486724582.5705004, -236, -362, 296, 234, -41, -75, -5, -23, 0, 0
1486724582.570851, -241, -363, 304, 209, -65, -73, -3, -14, 0, 0
1486724582.5750246, -232, -355, 304, 212, -74, -79, -4, -18, 0, 0
1486724582.5849142, -253, -365, 294, 202, -67, -73, -6, -20, 0, 0
1486724582.5856369, -240, -370, 288, 221, -56, -75, -11, -13, 0, 0
1486724582.5863676, -233, -368, 290, 237, -36, -76, -10, -16, 0, 0
1486724582.592308, -239, -366, 306, 222, -67, -73, -5, -19, 0, 0
1486724582.59312, -240, -354, 307, 182, -92, -78, -11, -15, 0, 0
1486724582.5935018, -240, -349, 291, 195, -70, -71, -3, -23, 0, 0
1486724582.6073132, -238, -345, 299, 203, -57, -82, -6, -15, 0, 0
1486724582.608127, -237, -345, 304, 200, -48, -81, -7, -11, 0, 0
1486724582.6089475, -250, -348, 318, 197, -71, -73, -3, -14, 0, 0
1486724582.6228235, -258, -345, 317, 194, -51, -84, -9, -20, 0, 0
1486724582.6237016, -268, -354, 305, 185, -61, -74, -5, -9, 0, 0
1486724582.6237385, -234, -348, 302, 206, -52, -73, -255, -13, 0, 0
1486724582.6301482, -254, -351, 319, 208, -67, -71, -2, -20, 0, 0
1486724582.6306534, -252, -356, 316, 202, -71, -73, -4, -25, 0, 0
1486724582.6320102, -246, -345, 315, 186, -71, -67, 1, -11, 0, 0
1486724582.6448941, -249, -347, 305, 194, -64, -75, -1, -14, 0, 0
1486724582.64589, -247, -353, 304, 219, -50, -77, 2, -13, 0, 0
1486724582.6465096, -242, -355, 309, 219, -56, -79, 3, -7, 0, 0
1486724582.659874, -230, -343, 322, 194, -74, -73, 2, -15, 0, 0
1486724582.660917, -242, -339, 315, 174, -85, -77, 0, -18, 0, 0
1486724582.662812, -237, -351, 303, 201, -61, -84, -5, -9, 0, 0
1486724582.667398, -238, -346, 297, 206, -65, -79, -5, -20, 0, 0
1486724582.668346, -235, -353, 308, 212, -66, -79, -4, -17, 0, 0
1486724582.6717966, -233, -350, 324, 200, -90, -77, -9, -15, 0, 0
1486724582.682414, -226, -342, 311, 186, -79, -75, 2, -12, 0, 0
1486724582.6833053, -242, -347, 304, 188, -79, -80, -2, -13, 0, 0
1486724582.6843953, -236, -345, 297, 204, -59, -77, 2, -13, 0, 0
1486724582.6974185, -231, -348, 301, 209, -67, -78, -1, -16, 0, 0
1486724582.6983871, -229, -337, 311, 189, -84, -77, -2, -17, 0, 0
1486724582.702227, -210, -328, 301, 171, -85, -71, 0, -18, 0, 0
1486724582.7124023, -230, -336, 302, 184, -70, -70, -1, -23, 0, 0
1486724582.7134132, -213, -327, 295, 191, -69, -71, 0, -15, 0, 0
1486724582.7137291, -213, -326, 304, 183, -89, -78, 2, -17, 0, 0
1486724582.7199001, -219, -328, 311, 162, -94, -78, -5, -14, 0, 0
1486724582.7209098, -216, -320, 303, 153, -104, -73, 2, -12, 0, 0
1486724582.7233915, -221, -321, 300, 185, -71, -74, 1, -20, 0, 0
1486724582.7348177, -222, -333, 300, 206, -66, -64, 2, -9, 0, 0
1486724582.735252, -235, -342, 310, 201, -66, -72, 0, -15, 0, 0
1486724582.7365108, -228, -321, 306, 152, -95, -77, -2, -17, 0, 0
1486724582.7423768, -216, -320, 296, 157, -90, -79, -7, -15, 0, 0
1486724582.7434125, -215, -332, 290, 178, -67, -72, 1, -11, 0, 0
1486724582.746051, -230, -331, 299, 187, -79, -67, 254, -15, 0, 0
1486724582.7573824, -223, -326, 309, 181, -82, -70, -1, -7, 0, 0
1486724582.7584834, -227, -322, 310, 161, -96, -69, -4, -18, 0, 0
1486724582.7597182, -232, -323, 295, 160, -76, -69, -2, -20, 0, 0
1486724582.7762222, -236, -335, 288, 188, -60, -71, -4, -16, 0, 0
1486724582.7798686, -225, -325, 294, 192, -64, -73, -6, -14, 0, 0
1486724582.7808425, -223, -330, 307, 194, -79, -66, 5, -12, 0, 0
1486724582.7812316, -221, -321, 306, 152, -95, -75, -4, -19, 0, 0
1486724582.782638, -233, -319, 299, 171, -74, -75, -8, -16, 0, 0
1486724582.7884388, -225, -326, 291, 185, -71, -68, 3, -10, 0, 0
1486724582.7885385, -224, -324, 290, 187, -79, -67, -2, -12, 0, 0
1486724582.7949297, -222, -313, 300, 165, -81, -69, 0, -16, 0, 0
1486724582.795291, -218, -319, 290, 153, -86, -68, 2, -4, 0, 0
1486724582.8101768, -229, -327, 284, 154, -79, -67, 1, -12, 0, 0
1486724582.8107185, -219, -318, 282, 160, -82, -67, -1, -12, 0, 0
1486724582.8113575, -218, -323, 287, 173, -87, -71, -7, -10, 0, 0
1486724582.8117437, -213, -330, 307, 194, -79, -66, 5, -12, 0, 0
1486724582.8174996, -212, -316, 300, 155, -88, -72, -8, -12, 0, 0
1486724582.8182435, -224, -324, 285, 154, -85, -74, -9, -19, 0, 0
1486724582.8188577, -235, -327, 285, 173, -71, -68, 3, -10, 0, 0
1486724582.832762, -203, -315, 297, 178, -75, -74, -4, -5, 0, 0
1486724582.8332636, -208, -310, 298, 159, -84, -75, -6, -8, 0, 0
1486724582.8343632, -228, -311, 308, 144, -97, -68, 2, -4, 0, 0
1486724582.8484042, -228, -314, 303, 168, -80, -64, 1, -12, 0, 0
1486724582.848475, -217, -320, 293, 187, -71, -68, 0, -14, 0, 0
1486724582.8504088, -209, -325, 295, 175, -82, -70, -7, -10, 0, 0
1486724582.8550093, -208, -316, 297, 161, -100, -67, 2, -9, 0, 0
1486724582.855394, -215, -317, 300, 150, -97, -68, -2, -9, 0, 0
1486724582.857225, -224, -322, 292, 162, -87, -63, -9, -19, 0, 0
1486724582.8698714, -220, -319, 291, 168, -67, -62, 3, -10, 0, 0
1486724582.8708162, -214, -326, 296, 182, -81, -69, 4, -15, 0, 0
1486724582.8719757, -204, -313, 300, 166, -86, -72, 2, -8, 0, 0
1486724582.8849814, -217, -314, 285, 141, -92, -68, 0, -8, 0, 0
1486724582.8858087, -215, -320, 271, 155, -76, -65, 3, -12, 0, 0
1486724582.8861935, -209, -325, 280, 183, -66, -72, 0, -9, 0, 0
1486724582.8923583, -203, -323, 282, 172, -80, -69, -4, -10, 0, 0
1486724582.8933275, -200, -315, 288, 148, -97, -65, -2, -20, 0, 0
1486724582.8937833, -202, -309, 281, 145, -98, -69, -14, -14, 0, 0
1486724582.907412, -201, -311, 276, 161, -73, -68, -11, -20, 0, 0
1486724582.9079454, -192, -311, 281, 171, -84, -68, -2, -8, 0, 0
1486724582.9095616, -190, -317, 291, 174, -87, -69, 4, -15, 0, 0
1486724582.9224358, -199, -314, 287, 146, -97, -72, -10, -14, 0, 0
1486724582.9233475, -206, -315, 285, 149, -97, -71, -2, -8, 0, 0
1486724582.9259212, -210, -324, 277, 157, -78, -73, -1, -12, 0, 0
1486724582.9298532, -205, -322, 279, 178, -79, -77, -14, -22, 0, 0
1486724582.9308386, -193, -314, 285, 155, -97, -77, -13, -15, 0, 0
1486724582.9311905, -187, -305, 291, 148, -103, -69, -2, -7, 0, 0
1486724582.945451, -200, -305, 283, 148, -92, -67, 1, -15, 0, 0
1486724582.9467685, -202, -306, 279, 172, -74, -66, -8, -12, 0, 0
1486724582.946838, -194, -314, 289, 179, -82, -71, -4, -9, 0, 0
1486724582.9598489, -190, -309, 298, 162, -90, -74, -5, -8, 0, 0
1486724582.9608753, -194, -300, 298, 154, -94, -73, -6, -14, 0, 0
1486724582.9627583, -202, -299, 279, 134, -84, -67, -1, -8, 0, 0
1486724582.9674034, -209, -305, 276, 158, -74, -73, -4, -12, 0, 0
1486724582.9680812, -198, -308, 284, 168, -83, -71, -4, -12, 0, 0
1486724582.9731736, -190, -306, 297, 150, -100, -77, -13, -15, 0, 0
1486724582.9824204, -198, -302, 287, 126, -104, -75, -8, -9, 0, 0
1486724582.9832315, -201, -302, 287, 133, -101, -78, -3, -16, 0, 0
1486724582.9837182, -206, -307, 293, 173, -76, -71, -8, -12, 0, 0
1486724582.9973805, -199, -299, 295, 169, -79, -70, -4, -16, 0, 0
1486724582.9980898, -195, -302, 298, 142, -99, -73, -1, -11, 0, 0
1486724582.9989812, -193, -290, 299, 132, -99, -67, -6, -14, 0, 0
1486724583.0048754, -203, -300, 282, 144, -85, -69, -2, -11, 0, 0
1486724583.005821, -203, -305, 279, 157, -69, -64, -5, -22, 0, 0
1486724583.0079858, -201, -304, 296, 152, -91, -67, -3, -20, 0, 0
1486724583.0198774, -181, -297, 304, 144, -100, -73, -10, -20, 0, 0
1486724583.0207553, -206, -298, 296, 131, -100, -73, -3, -13, 0, 0
1486724583.0212753, -198, -300, 289, 141, -78, -64, -7, -12, 0, 0
1486724583.0219097, -206, -307, 293, 173, -76, -71, 2, -8, 0, 0
1486724583.0349047, -193, -294, 291, 150, -94, -70, -10, -20, 0, 0
1486724583.035865, -192, -291, 295, 129, -111, -72, -10, -13, 0, 0
1486724583.0378466, -196, -290, 299, 132, -99, -67, -2, -9, 0, 0
1486724583.0423803, -209, -300, 277, 145, -75, -67, -5, -11, 0, 0
1486724583.0433383, -200, -299, 276, 145, -88, -71, -7, -13, 0, 0
1486724583.0436304, -198, -303, 287, 152, -91, -67, -3, -20, 0, 0
1486724583.0573874, -182, -304, 282, 132, -108, -63, -1, -14, 0, 0
1486724583.0583198, -181, -299, 272, 127, -99, -74, -10, -18, 0, 0
1486724583.0590708, -184, -297, 274, 149, -78, -64, -7, -12, 0, 0
1486724583.0724175, -172, -302, 273, 164, -80, -64, -3, -11, 0, 0
1486724583.0727754, -170, -299, 275, 153, -90, -66, -5, -9, 0, 0
1486724583.0736463, -170, -289, 288, 144, -102, -72, -10, -13, 0, 0
1486724583.087464, -187, -289, 280, 129, -102, -62, 3, -14, 0, 0
1486724583.088329, -183, -289, 273, 161, -75, -68, 0, -10, 0, 0
1486724583.0886989, -174, -292, 265, 157, -79, -60, -7, -13, 0, 0
1486724583.094894, -170, -287, 288, 145, -101, -65, -5, -10, 0, 0
1486724583.0958598, -172, -279, 282, 122, -109, -68, -2, -13, 0, 0
1486724583.0972402, -181, -278, 275, 121, -101, -70, -6, -16, 0, 0
1486724583.1098332, -191, -290, 265, 135, -76, -65, -1, -11, 0, 0
1486724583.1108742, -166, -291, 267, 151, -80, -62, -4, -17, 0, 0
1486724583.113961, -163, -289, 278, 145, -90, -56, -2, -12, 0, 0
1486724583.1174235, -171, -289, 270, 127, -104, -66, -10, -23, 0, 0
1486724583.1182408, -192, -293, 272, 138, -85, -63, -2, -17, 0, 0
1486724583.1194844, -187, -300, 254, 142, -84, -64, -6, -8, 0, 0
1486724583.132628, -179, -295, 263, 162, -79, -63, -4, -17, 0, 0
1486724583.1331606, -168, -286, 277, 145, -95, -61, -8, -9, 0, 0
1486724583.1353345, -176, -278, 284, 125, -99, -64, -2, -13, 0, 0
1486724583.1473808, -191, -289, 268, 125, -94, -67, -5, -12, 0, 0
1486724583.1482532, -186, -290, 265, 147, -79, -68, -2, -13, 0, 0
1486724583.150816, -182, -289, 269, 150, -76, -66, -5, -12, 0, 0
1486724583.154912, -163, -280, 271, 136, -101, -67, -5, -7, 0, 0
1486724583.1552978, -173, -278, 269, 119, -92, -60, -1, -7, 0, 0
1486724583.1613197, -184, -273, 261, 114, -108, -68, -5, -10, 0, 0
1486724583.1699262, -180, -278, 266, 125, -83, -61, -2, -16, 0, 0
1486724583.1708353, -166, -281, 262, 140, -94, -70, -3, -4, 0, 0
1486724583.1718035, -164, -276, 272, 111, -114, -66, -6, -9, 0, 0
1486724583.1848447, -170, -280, 261, 110, -95, -64, -11, -14, 0, 0
1486724583.1858664, -178, -278, 254, 118, -81, -61, -2, -9, 0, 0
1486724583.188867, -172, -286, 258, 147, -82, -61, -3, -13, 0, 0
1486724583.1922703, -163, -286, 261, 139, -93, -72, -13, -17, 0, 0
1486724583.1933775, -164, -278, 260, 119, -101, -61, -9, -10, 0, 0
1486724583.1937103, -169, -283, 261, 118, -101, -72, -10, -11, 0, 0
1486724583.2083783, -168, -279, 257, 131, -92, -68, -1, -9, 0, 0
1486724583.2094295, -177, -284, 254, 141, -94, -71, -10, -8, 0, 0
1486724583.2095003, -167, -285, 266, 138, -99, -70, -3, -4, 0, 0
1486724583.222296, -177, -281, 268, 119, -104, -53, -1, -9, 0, 0
1486724583.222641, -181, -277, 263, 97, -110, -61, -7, -15, 0, 0
1486724583.2243085, -176, -282, 253, 115, -89, -60, -3, -9, 0, 0
1486724583.2298992, -167, -287, 249, 137, -88, -61, -9, -11, 0, 0
1486724583.2307644, -147, -280, 260, 126, -107, -66, -14, -19, 0, 0
1486724583.2366076, -159, -273, 259, 114, -120, -64, -8, -20, 0, 0
1486724583.2455847, -151, -271, 253, 104, -99, -63, -1, -6, 0, 0
1486724583.2477005, -169, -277, 248, 125, -86, -71, -11, -9, 0, 0
1486724583.2477715, -156, -276, 252, 134, -86, -65, -8, -9, 0, 0
1486724583.259915, -161, -276, 263, 125, -108, -62, -12, -6, 0, 0
1486724583.2607393, -156, -275, 263, 111, -110, -59, -5, -8, 0, 0
1486724583.2612977, -167, -275, 266, 110, -105, -57, -5, -9, 0, 0
1486724583.2631512, -165, -282, 253, 115, -89, -60, -3, -9, 0, 0
1486724583.2676294, -157, -273, 254, 133, -90, -54, -2, -13, 0, 0
1486724583.2687247, -161, -274, 262, 123, -98, -64, -5, -15, 0, 0
1486724583.2825212, -152, -264, 262, 98, -113, -60, -4, -12, 0, 0
1486724583.2829332, -170, -266, 262, 109, -101, -64, -5, -8, 0, 0
1486724583.284693, -167, -278, 254, 127, -87, -66, -1, -5, 0, 0
1486724583.2880433, -156, -276, 252, 134, -86, -65, -8, -9, 0, 0
1486724583.297396, -160, -268, 266, 114, -111, -59, 1, -14, 0, 0
1486724583.2983537, -149, -257, 269, 101, -117, -60, -7, -6, 0, 0
1486724583.3004339, -158, -266, 266, 110, -105, -57, -5, -9, 0, 0
1486724583.3048034, -169, -273, 257, 140, -74, -69, -8, -12, 0, 0
1486724583.3051155, -166, -272, 265, 162, -67, -53, 0, -7, 0, 0
1486724583.3109426, -157, -270, 279, 127, -98, -64, -5, -15, 0, 0
1486724583.3198707, -161, -260, 270, 102, -112, -62, -2, -14, 0, 0
1486724583.32085, -167, -266, 265, 110, -101, -69, -8, -18, 0, 0
1486724583.3228307, -172, -268, 257, 131, -87, -66, -1, -5, 0, 0
1486724583.3349338, -158, -264, 260, 135, -93, -60, -1, -7, 0, 0
1486724583.3404036, -160, -262, 264, 112, -104, -62, -11, -14, 50, 1390
1486724583.3407516, -149, -256, 262, 87, -109, -60, -7, -6, 50, 1390
1486724583.343406, -171, -263, 254, 103, -92, -57, 0, -18, 50, 1390
1486724583.3449757, -172, -266, 252, 128, -74, -64, -7, -17, 50, 1390
1486724583.346686, -164, -259, 264, 122, -86, -61, 0, -7, 50, 1390
1486724583.3587625, -162, -262, 277, 118, -102, -62, 0, -12, 50, 1390
1486724583.3588257, -164, -253, 265, 98, -105, -64, -6, -8, 50, 1390
1486724583.3592432, -164, -256, 269, 106, -103, -72, -11, -13, 50, 1390
1486724583.3733582, -163, -261, 265, 140, -75, -67, -5, -12, 50, 1390
1486724583.373445, -160, -259, 275, 125, -88, -55, -6, -12, 50, 1390
1486724583.3743277, -148, -260, 275, 114, -98, -65, -10, -18, 50, 1390
1486724583.3808486, -152, -259, 262, 100, -100, -65, -6, -15, 50, 1390
1486724583.382703, -164, -264, 248, 121, -79, -69, -9, -15, 50, 1390
1486724583.3844156, -167, -262, 263, 132, -79, -66, -7, -17, 50, 1390
1486724583.3974857, -161, -265, 262, 131, -83, -71, -2, -13, 50, 1390
1486724583.3975737, -148, -258, 262, 103, -114, -66, -1, -10, 50, 1390
1486724583.3978014, -161, -259, 252, 101, -99, -67, -5, -19, 50, 1390
1486724583.4108453, -160, -257, 254, 125, -83, -71, -5, -14, 50, 1390
1486724583.4116826, -161, -259, 254, 137, -88, -74, -11, -18, 50, 1390
1486724583.4148848, -145, -260, 253, 122, -94, -65, -5, -18, 50, 1390
1486724583.4174926, -151, -260, 251, 98, -109, -63, -9, -11, 50, 1390
1486724583.4178321, -154, -256, 252, 93, -106, -71, -9, -14, 50, 1390
1486724583.4214537, -155, -258, 245, 109, -100, -62, -14, -19, 50, 1390
1486724583.4334693, -154, -264, 256, 115, -94, -63, -9, -11, 50, 1390
1486724583.4345865, -144, -259, 253, 108, -109, -61, -3, -5, 50, 1390
1486724583.4346578, -137, -249, 259, 96, -122, -63, -4, -10, 50, 1390
1486724583.4474568, -146, -246, 258, 91, -109, -64, 1, -7, 50, 1390
1486724583.4485054, -154, -255, 247, 113, -95, -63, -8, -13, 50, 1390
1486724583.4489286, -153, -261, 247, 121, -83, -67, 1, -9, 50, 1390
1486724583.4548209, -151, -255, 258, 105, -92, -58, -4, -14, 50, 1390
1486724583.4552689, -145, -252, 259, 99, -107, -66, -3, -16, 50, 1390
1486724583.4562407, -162, -256, 244, 92, -98, -65, -6, -9, 50, 1390
1486724583.4699612, -157, -254, 243, 107, -79, -64, -12, -12, 50, 1390
1486724583.4703183, -153, -253, 247, 129, -81, -57, 0, -14, 50, 1390
1486724583.4713192, -145, -253, 255, 91, -106, -58, -6, -16, 50, 1390
1486724583.4848568, -154, -258, 253, 90, -105, -66, 1, -12, 50, 1390
1486724583.4853842, -166, -260, 249, 94, -94, -62, -5, -18, 50, 1390
1486724583.4859412, -165, -255, 245, 110, -82, -61, -6, -13, 50, 1390
1486724583.4923875, -152, -258, 247, 125, -86, -62, -6, -14, 50, 1390
1486724583.492776, -141, -256, 251, 102, -111, -59, -5, -12, 50, 1390
1486724583.4937463, -156, -250, 252, 96, -101, -70, -13, -16, 50, 1390
1486724583.5074284, -150, -248, 250, 79, -111, -70, -13, -21, 50, 1390
1486724583.507845, -160, -251, 250, 114, -92, -70, -9, -18, 50, 1390
1486724583.5086467, -141, -254, 254, 112, -95, -64, -14, -10, 50, 1390
1486724583.5226107, -140, -244, 264, 86, -132, -59, -2, -11, 50, 1390
1486724583.523228, -153, -249, 259, 88, -115, -65, -8, -16, 50, 1390
1486724583.5252848, -158, -244, 250, 93, -101, -66, -13, -10, 50, 1390
1486724583.53086, -157, -256, 242, 119, -88, -67, -10, -11, 50, 1390
1486724583.530924, -147, -256, 253, 119, -86, -61, -12, -14, 50, 1390
1486724583.5312572, -145, -253, 254, 103, -99, -67, -11, -18, 50, 1390
1486724583.534917, -151, -246, 256, 94, -101, -70, -13, -14, 50, 1390
1486724583.5449994, -158, -250, 244, 99, -94, -66, -7, -10, 50, 1390
1486724583.5460155, -145, -257, 230, 104, -91, -65, -1, -10, 50, 1390
1486724583.546674, -140, -254, 254, 112, -95, -64, -14, -10, 50, 1390
1486724583.560975, -133, -253, 241, 98, -108, -62, -8, -16, 50, 1390
1486724583.5619407, -144, -247, 241, 83, -116, -60, -3, -12, 50, 1390
1486724583.5620136, -149, -251, 225, 93, -101, -66, -13, -10, 50, 1390
1486724583.5674777, -145, -248, 226, 106, -82, -55, -4, -17, 50, 1390
1486724583.5685012, -138, -251, 231, 84, -122, -61, -9, -11, 50, 1390
1486724583.5698204, -128, -249, 226, 82, -108, -67, -11, -18, 50, 1390
1486724583.5824287, -142, -261, 225, 83, -93, -49, -2, -9, 50, 1390
1486724583.583477, -157, -257, 224, 89, -85, -58, -7, -11, 50, 1390
1486724583.5873973, -131, -239, 232, 105, -91, -62, -1, -10, 50, 1390
1486724583.5975513, -131, -237, 240, 93, -111, -65, -5, -10, 50, 1390
1486724583.5984275, -128, -244, 238, 83, -117, -63, -6, -13, 50, 1390
1486724583.599106, -131, -238, 231, 74, -120, -66, -11, -12, 50, 1390
1486724583.6049793, -138, -240, 223, 87, -100, -56, -4, -10, 50, 1390
1486724583.6059084, -125, -240, 228, 107, -97, -59, -1, -4, 50, 1390
1486724583.606877, -139, -239, 244, 93, -107, -55, -2, -6, 50, 1390
1486724583.619967, -137, -238, 243, 71, -112, -58, -1, -5, 50, 1390
1486724583.6209455, -148, -243, 235, 84, -102, -57, -3, -9, 50, 1390
1486724583.6222296, -161, -257, 231, 104, -83, -61, -5, -13, 50, 1390
1486724583.6350596, -146, -251, 229, 109, -97, -65, -10, -15, 50, 1390
1486724583.6359885, -143, -244, 240, 101, -91, -65, -2, -1, 50, 1390
1486724583.6391432, -141, -246, 228, 74, -100, -63, -6, -13, 50, 1390
1486724583.6426067, -142, -244, 224, 76, -105, -59, -10, -18, 50, 1390
1486724583.643299, -141, -241, 227, 95, -84, -59, -5, -18, 50, 1390
1486724583.6445196, -135, -237, 227, 97, -93, -59, -1, -4, 50, 1390
1486724583.6574242, -140, -243, 242, 89, -110, -62, -6, -6, 50, 1390
1486724583.6584272, -141, -235, 247, 80, -111, -68, -15, -16, 50, 1390
1486724583.6592293, -129, -227, 231, 78, -98, -56, -3, -9, 50, 1390
1486724583.672389, -131, -240, 228, 102, -91, -64, -11, -17, 50, 1390
1486724583.6733658, -132, -242, 235, 100, -94, -67, -9, -15, 50, 1390
1486724583.6758242, -130, -238, 245, 88, -105, -62, -7, -16, 50, 1390
1486724583.6799238, -140, -235, 242, 71, -110, -61, -7, -9, 50, 1390
1486724583.680513, -156, -242, 235, 89, -96, -62, -3, -13, 50, 1390
1486724583.6842248, -140, -233, 234, 83, -97, -59, -1, -13, 50, 1390
1486724583.6949031, -102, -214, 228, 65, -110, -59, 7, -9, 50, 1390
1486724583.6958969, -86, -191, 220, 37, -133, -66, -12, -4, 50, 1390
1486724583.6969357, -67, -171, 214, 23, -135, -58, -3, -13, 50, 1390
1486724583.7099252, -61, -155, 200, 8, -144, -61, -5, -9, 50, 1390
1486724583.710966, -50, -139, 191, 10, -130, -54, -6, -14, 50, 1390
1486724583.7116623, -17, -113, 197, -11, -170, -67, -9, -15, 50, 1390
1486724583.7173002, 7, -88, 199, -49, -184, -62, -9, -14, 50, 1390
1486724583.71781, 13, -65, 194, -64, -180, -61, -5, -9, 50, 1390
1486724583.7217386, 14, -57, 174, -62, -171, -62, -3, -13, 50, 1390
1486724583.7324646, 31, -43, 176, -80, -175, -63, -7, -14, 50, 1390
1486724583.7328305, 52, -23, 184, -93, -197, -60, -10, -10, 50, 1390
1486724583.7336676, 66, -15, 182, -118, -222, -59, -12, -4, 50, 1390
1486724583.748294, 64, 0, 171, -148, -235, -64, -9, -13, 50, 1390
1486724583.749687, 59, -1, 158, -137, -209, -67, -10, -15, 50, 1390
1486724583.7497578, 68, -6, 158, -123, -213, -60, -5, -14, 50, 1390
1486724583.7550423, 81, -8, 169, -125, -226, -58, -3, -10, 50, 1390
1486724583.755744, 78, -15, 161, -142, -227, -60, -6, -14, 50, 1390
1486724583.7562883, 79, -12, 156, -117, -202, -58, -9, -9, 50, 1390
1486724583.7699358, 74, -7, 162, -119, -204, -65, -6, -7, 50, 1390
1486724583.7708411, 71, -18, 161, -107, -203, -58, -11, -8, 50, 1390
1486724583.7723167, 80, -18, 162, -120, -216, -60, -4, -4, 50, 1390
1486724583.7851458, 83, -4, 174, -126, -228, -67, -16, -13, 50, 1390
1486724583.7855597, 64, -10, 168, -130, -220, -60, -11, -9, 50, 1390
1486724583.786494, 63, -6, 157, -111, -218, -61, -10, -9, 50, 1390
1486724583.787136, 61, -6, 158, -123, -213, -60, -5, -6, 50, 1390
1486724583.7924013, 63, -13, 182, -115, -224, -63, -8, -12, 50, 1390
1486724583.793203, 68, -12, 181, -130, -232, -60, -2, -9, 50, 1390
1486724583.794819, 57, -11, 174, -130, -222, -58, -9, -7, 50, 1390
1486724583.807431, 57, -19, 170, -123, -226, -63, -3, -12, 50, 1390
1486724583.8077526, 60, -28, 168, -100, -204, -64, -3, -5, 50, 1390
1486724583.8129516, 72, -18, 162, -120, -216, -60, -4, -4, 50, 1390
1486724583.8224585, 68, -20, 184, -123, -234, -67, -7, -7, 50, 1390
1486724583.8232942, 56, -20, 170, -114, -220, -59, -2, -7, 50, 1390
1486724583.8243527, 59, -26, 168, -102, -218, -61, -10, -9, 50, 1390
1486724583.8299348, 55, -28, 174, -95, -213, -63, -5, -9, 50, 1390
1486724583.8308947, 63, -21, 186, -117, -232, -61, -2, -8, 50, 1390
1486724583.8320203, 59, -20, 185, -129, -232, -60, -2, -9, 50, 1390
1486724583.844965, 64, -17, 174, -126, -214, -63, -1, -12, 50, 1390
1486724583.8456416, 61, -23, 173, -100, -205, -63, -3, -15, 50, 1390
1486724583.847414, 63, -23, 182, -109, -218, -64, -3, -5, 50, 1390
1486724583.8599849, 57, -22, 178, -132, -227, -59, -11, -17, 50, 1390
1486724583.860642, 58, -10, 186, -140, -234, -58, -5, -7, 50, 1390
1486724583.8670323, 68, -8, 172, -130, -215, -63, -13, -7, 50, 1390
1486724583.8681211, 68, -21, 158, -115, -213, -51, -2, -6, 50, 1390
1486724583.868961, 98, -2, 172, -126, -237, -62, -9, -11, 50, 1390
1486724583.8691971, 84, -6, 166, -137, -228, -54, -4, -8, 50, 1390
1486724583.8824377, 88, 1, 167, -141, -230, -59, -6, -5, 50, 1390
1486724583.8833447, 64, -5, 161, -132, -222, -52, -5, -5, 50, 1390
1486724583.8849084, 87, -3, 156, -118, -211, -56, -11, -14, 50, 1390
1486724583.8974423, 103, -5, 167, -123, -225, -64, -13, -10, 50, 1390
1486724583.8983295, 87, -9, 169, -138, -240, -67, -11, -7, 50, 1390
1486724583.8991141, 84, -9, 163, -148, -240, -64, -4, -256, 50, 1390
1486724583.9049356, 88, 3, 152, -143, -228, -63, -10, -9, 50, 1390
1486724583.9058928, 99, 1, 147, -134, -228, -52, -6, -10, 50, 1390
1486724583.9069214, 102, 4, 161, -126, -235, -58, -16, -14, 50, 1390
1486724583.919981, 103, 8, 170, -140, -242, -58, -9, -8, 50, 1390
1486724583.9209092, 90, 4, 154, -150, -239, -62, -13, 3, 50, 1390
1486724583.9220488, 90, 6, 153, -148, -235, -68, -9, -5, 50, 1390
1486724583.9349682, 106, 2, 146, -121, -218, -63, -6, -18, 50, 1390
1486724583.9358788, 101, -4, 154, -137, -234, -52, -1, -6, 50, 1390
1486724583.9377556, 103, 2, 163, -145, -237, -56, -2, -3, 50, 1390
1486724583.9424555, 75, -1, 166, -146, -235, -66, -6, -10, 50, 1390
1486724583.9428425, 85, -6, 142, -143, -228, -62, -2, -12, 50, 1390
1486724583.9466321, 103, -8, 150, -113, -224, -56, -6, -16, 50, 1390
1486724583.9575534, 104, -9, 161, -124, -229, -58, -6, -11, 50, 1390
1486724583.9580724, 95, 2, 170, -138, -251, -55, -6, -10, 50, 1390
1486724583.967699, 87, -4, 158, -144, -233, -62, -13, 3, 50, 1390
1486724583.9725533, 74, -13, 152, -112, -213, -58, -7, -16, 50, 1390
1486724583.9733787, 97, -4, 152, -108, -211, -62, -9, -9, 50, 1390
1486724583.9742434, 92, -9, 167, -119, -230, -62, -1, -6, 50, 1390
1486724583.979927, 92, -8, 165, -131, -236, -63, -4, -8, 50, 1390
1486724583.980885, 86, -6, 157, -128, -225, -69, -10, -12, 50, 1390
1486724583.9812353, 74, -11, 155, -107, -211, -58, -2, -12, 50, 1390
1486724583.9958262, 87, -12, 153, -110, -222, -62, -9, -9, 50, 1390
1486724583.9959104, 96, -10, 161, -127, -233, -60, -5, -1, 50, 1390
1486724583.9992006, 95, -14, 147, -144, -236, -53, -12, -10, 50, 1390
1486724584.0099332, 90, -3, 142, -151, -239, -58, -10, -12, 50, 1390
1486724584.0106127, 91, 1, 151, -123, -213, -57, -14, -23, 50, 1390
1486724584.012955, 87, -2, 155, -126, -219, -56, -7, -11, 50, 1390
1486724584.017695, 85, -16, 163, -138, -231, -2358, -2817, 16895, 50, 1390
1486724584.018115, 85, -9, 149, -143, -233, -56, -4, -20, 50, 1390
1486724584.0325086, 90, -16, 148, -125, -210, -59, -5, -16, 50, 1390
1486724584.0332162, 84, -19, 152, -124, -231, -57, -7, -18, 50, 1390
1486724584.0340679, 101, -4, 144, -145, -238, -60, -8, -23, 50, 1390
1486724584.0347579, 88, -10, 161, -127, -233, -60, -5, -1, 50, 1390
1486724584.0474412, 80, -9, 145, -150, -229, -60, -7, -17, 50, 1390
1486724584.048384, 93, -9, 144, -129, -223, -58, -7, -3, 50, 1390
1486724584.0497236, 102, -5, 155, -129, -226, -57, -14, -23, 50, 1390
1486724584.0549252, 108, 1, 156, -137, -240, -62, -8, -13, 50, 1390
1486724584.0557666, 77, -7, 155, -144, -233, -55, -7, -15, 50, 1390
1486724584.0563114, 88, -8, 148, -135, -225, -64, -8, -20, 50, 1390
1486724584.069978, 80, -11, 146, -113, -219, -59, -9, -11, 50, 1390
1486724584.0708973, 96, -9, 155, -119, -219, -50, -9, -9, 50, 1390
1486724584.0725622, 84, -5, 172, -134, -238, -60, -8, -23, 50, 1390
1486724584.084912, 78, -1, 175, -137, -232, -56, -8, -17, 50, 1390
1486724584.0851936, 69, -15, 157, -124, -214, -55, -5, -11, 50, 1390
1486724584.0864592, 86, -20, 156, -107, -215, -58, -7, -3, 50, 1390
1486724584.0926588, 85, -20, 171, -108, -237, -58, -5, -10, 50, 1390
1486724584.0932474, 88, -18, 157, -128, -235, -57, -11, -12, 50, 1390
1486724584.0940661, 74, -20, 145, -133, -226, -55, -7, -15, 50, 1390
1486724584.1074543, 79, -30, 143, -118, -214, -56, -11, -9, 50, 1390
1486724584.1086986, 72, -28, 151, -99, -211, -56, -8, -7, 50, 1390
1486724584.1097007, 75, -35, 157, -92, -210, -64, -9, -9, 50, 1390
1486724584.1234326, 86, -23, 152, -131, -236, -53, -9, -21, 50, 1390
1486724584.125063, 77, -26, 139, -143, -235, -47, 1, -12, 50, 1390
1486724584.126716, 84, -27, 150, -126, -220, -57, -7, -11, 50, 1390
1486724584.130746, 79, -29, 151, -104, -208, -53, -4, -6, 50, 1390
1486724584.1315923, 76, -21, 160, -113, -226, -54, -5, -11, 50, 1390
1486724584.1334329, 83, -13, 165, -138, -240, -55, -7, -4, 50, 1390
1486724584.146874, 83, -15, 154, -132, -222, -52, -2, -9, 50, 1390
1486724584.1469648, 79, -17, 144, -123, -207, -56, -9, -6, 50, 1390
1486724584.148064, 86, -15, 151, -110, -207, -56, -8, -7, 50, 1390
1486724584.1610224, 78, -21, 157, -120, -223, -58, -15, -14, 50, 1390
1486724584.1622727, 74, -15, 158, -135, -229, -60, -8, -7, 50, 1390
1486724584.167083, 71, -20, 150, -130, -213, -47, 1, -12, 50, 1390
1486724584.1700258, 73, -24, 147, -95, -193, -55, -5, -15, 50, 1390
1486724584.1700966, 78, -25, 149, -102, -206, -58, -9, -11, 50, 1390
1486724584.1708126, 66, -18, 152, -131, -225, -54, -5, -11, 50, 1390
1486724584.1829479, 77, -24, 147, -131, -214, -54, -8, -15, 50, 1390
1486724584.1831038, 59, -23, 149, -111, -204, -56, -9, -7, 50, 1390
1486724584.1868656, 57, -32, 149, -108, -198, -53, -4, -14, 50, 1390
1486724584.1984515, 78, -25, 153, -101, -205, -56, -6, -13, 50, 1390
1486724584.1987264, 76, -26, 161, -120, -225, -56, -4, -10, 50, 1390
1486724584.1997125, 64, -25, 163, -135, -230, -60, -8, -7, 50, 1390
1486724584.2051606, 66, -22, 153, -116, -205, -57, -10, -15, 50, 1390
1486724584.2058644, 68, -22, 151, -110, -195, -55, -6, -10, 50, 1390
1486724584.2064912, 66, -29, 158, -101, -200, -56, -9, -11, 50, 1390
1486724584.2209504, 82, -29, 163, -113, -212, -59, -4, -7, 50, 1390
1486724584.2219515, 69, -23, 163, -131, -218, -58, -9, -8, 50, 1390
1486724584.2222235, 75, -26, 169, -95, -192, -57, -8, -12, 50, 1390
1486724584.2359118, 64, -41, 144, -87, -193, -53, -3, -13, 50, 1390
1486724584.2387714, 64, -37, 163, -80, -198, -51, -12, -16, 50, 1390
1486724584.2402651, 69, -30, 168, -108, -220, -52, -7, -13, 50, 1390
1486724584.2434092, 68, -27, 163, -112, -201, -60, -9, -8, 50, 1390
1486724584.2455313, 62, -33, 155, -110, -203, -62, -17, -18, 50, 1390
1486724584.2471023, 67, -32, 155, -84, -194, -55, -13, -10, 50, 1390
1486724584.2582257, 79, -36, 158, -92, -194, -55, -15, -14, 50, 1390
1486724584.25883, 61, -34, 166, -117, -222, -54, -9, -14, 50, 1390
1486724584.2596533, 68, -27, 162, -124, -222, -56, -14, -17, 50, 1390
1486724584.2603576, 57, -26, 169, -95, -192, -57, -8, -12, 50, 1390
1486724584.273567, 60, -44, 153, -90, -196, -52, -7, -13, 50, 1390
1486724584.2746844, 75, -33, 160, -97, -218, -56, -11, -11, 50, 1390
1486724584.2771015, 77, -36, 163, -121, -220, -52, -7, -13, 50, 1390
1486724584.2810202, 64, -30, 154, -114, -208, -51, -6, -10, 50, 1390
1486724584.282371, 61, -37, 153, -110, -200, -55, -6, -10, 50, 1390
1486724584.282443, 61, -32, 157, -93, -204, -55, -13, -17, 50, 1390
1486724584.2950025, 59, -21, 173, -106, -210, -52, -6, -15, 50, 1390
1486724584.296014, 70, -20, 177, -122, -220, -53, -3, -6, 50, 1390
1486724584.296731, 50, -25, 160, -122, -213, -56, -14, -17, 50, 1390
1486724584.3109593, 47, -27, 162, -99, -197, -48, -2, -5, 50, 1390
1486724584.31204, 55, -42, 155, -78, -194, -54, -7, -9, 50, 1390
1486724584.3121536, 80, -28, 167, -99, -214, -53, -3, -11, 50, 1390
1486724584.3183336, 63, -32, 168, -111, -217, -58, -10, -8, 50, 1390
1486724584.3186216, 39, -37, 173, -106, -208, -54, -6, -10, 50, 1390
1486724584.322934, 63, -32, 157, -94, -200, -46, 1, -7, 50, 1390
1486724584.3324215, 57, -39, 161, -87, -192, -52, -1, -9, 50, 1390
1486724584.3334265, 63, -38, 171, -93, -217, -52, -6, -4, 50, 1390
1486724584.3340776, 61, -28, 178, -107, -219, -54, -3, -6, 50, 1390
1486724584.3474813, 65, -20, 170, -109, -216, -52, 2, -8, 50, 1390
1486724584.3483577, 66, -31, 157, -95, -193, -55, -3, -10, 50, 1390
1486724584.3503392, 70, -36, 164, -84, -202, -55, -7, -9, 50, 1390
1486724584.3559344, 66, -43, 168, -87, -214, -59, -11, -14, 50, 1390
1486724584.3560145, 63, -33, 171, -102, -218, -51, -9, -14, 50, 1390
1486724584.3589242, 49, -36, 158, -95, -208, -55, -6, -10, 50, 1390
1486724584.3700314, 55, -34, 166, -83, -191, -56, -1, -15, 50, 1390
1486724584.3707035, 60, -37, 161, -78, -193, -57, -4, -6, 50, 1390
1486724584.3710947, 68, -31, 165, -103, -214, -56, -10, -14, 50, 1390
1486724584.3858583, 62, -33, 162, -86, -191, -54, -1, -9, 2510, 1390
1486724584.3863382, 58, -36, 148, -96, -200, -54, 0, -10, 2510, 1390
1486724584.3863757, 73, -36, 144, -74, -178, -47, 6, -7, 2510, 1390
1486724584.3924205, 69, -42, 148, -84, -194, -48, -1, -9, 2510, 1390
1486724584.3931634, 73, -34, 161, -100, -208, -51, -5, -11, 2510, 1390
1486724584.3962471, 66, -29, 155, -109, -202, -51, -9, -14, 2510, 1390
1486724584.408157, 74, -34, 145, -93, -191, -56, -9, -10, 2510, 1390
1486724584.4088917, 60, -35, 151, -76, -192, -58, -5, -5, 2510, 1390
1486724584.4089622, 71, -40, 155, -74, -196, -55, -8, -6, 2510, 1390
1486724584.4226801, 68, -37, 154, -106, -204, -52, 1, -4, 2510, 1390
1486724584.4227457, 71, -29, 158, -95, -203, -57, 1, -6, 2510, 1390
1486724584.4267988, 55, -43, 152, -77, -192, -60, -1, -6, 2510, 1390
1486724584.4299514, 60, -38, 152, -74, -187, -49, -3, -17, 2510, 1390
1486724584.43059, 62, -39, 164, -70, -196, -55, -6, -11, 2510, 1390
1486724584.4352446, 61, -32, 169, -83, -203, -56, -6, -6, 2510, 1390
1486724584.445065, 58, -41, 169, -105, -214, -54, -7, -8, 2510, 1390
1486724584.445794, 54, -38, 151, -88, -188, -46, -1, -5, 2510, 1390
1486724584.446165, 65, -42, 157, -72, -185, -58, -5, -5, 2510, 1390
1486724584.460057, 60, -43, 164, -78, -193, -51, 2, -10, 2510, 1390
1486724584.4603183, 67, -34, 163, -98, -220, -52, -8, -19, 2510, 1390
1486724584.4629807, 56, -36, 155, -100, -217, -56, 2, -10, 2510, 1390
1486724584.4674742, 68, -39, 144, -91, -196, -54, -2, -13, 2510, 1390
1486724584.4683404, 63, -37, 155, -81, -192, -56, -4, -8, 2510, 1390
1486724584.468729, 62, -37, 172, -66, -192, -58, -6, -8, 2510, 1390
1486724584.482455, 78, -35, 161, -89, -202, -56, -14, -15, 2510, 1390
1486724584.483202, 43, -39, 161, -121, -223, -51, -4, -14, 2510, 1390
1486724584.483841, 68, -40, 140, -82, -173, -52, -10, -15, 2510, 1390
1486724584.4875126, 65, -42, 157, -72, -185, -55, 0, -9, 2510, 1390
1486724584.4975019, 71, -40, 161, -79, -195, -54, -12, -4, 2510, 1390
1486724584.4983103, 69, -36, 160, -101, -210, -53, -17, -8, 2510, 1390
1486724584.4995124, 52, -44, 153, -100, -217, -56, 2, -10, 2510, 1390
1486724584.5049884, 58, -42, 156, -63, -177, -53, -6, -14, 2510, 1390
1486724584.505824, 69, -37, 159, -57, -186, -58, -8, -6, 2510, 1390
1486724584.506338, 68, -42, 165, -71, -192, -58, -6, -8, 2510, 1390
1486724584.5200543, 57, -43, 164, -81, -204, -54, -6, -4, 2510, 1390
1486724584.5208933, 51, -44, 163, -81, -191, -55, -8, -10, 2510, 1390
1486724584.5218086, 46, -52, 150, -53, -173, -52, -10, -15, 2510, 1390
1486724584.5349479, 56, -50, 155, -55, -172, -60, -16, -14, 2510, 1390
1486724584.5359712, 50, -52, 167, -63, -186, -50, -4, -2, 2510, 1390
1486724584.5376177, 48, -52, 163, -85, -196, -56, -3, -8, 2510, 1390
1486724584.542523, 43, -35, 169, -84, -176, -50, -6, -11, 2510, 1390
1486724584.5434175, 50, -45, 155, -51, -170, -48, -11, -13, 2510, 1390
1486724584.5444946, 50, -58, 157, -57, -177, -56, -4, -3, 2510, 1390
1486724584.5574229, 60, -50, 162, -62, -190, -50, -5, -2, 2510, 1390
1486724584.55878, 47, -48, 163, -85, -187, -51, -4, 4, 2510, 1390
1486724584.5588515, 38, -56, 152, -79, -179, -53, -8, -10, 2510, 1390
1486724584.5747232, 47, -53, 156, -60, -177, -48, 3, -9, 2510, 1390
1486724584.5748022, 52, -51, 163, -53, -182, -54, -8, -13, 2510, 1390
1486724584.5748277, 70, -46, 167, -67, -192, -56, -12, -8, 2510, 1390
1486724584.5809395, 55, -41, 165, -77, -190, -54, -9, -11, 2510, 1390
1486724584.581534, 47, -54, 159, -67, -183, -53, -5, -14, 2510, 1390
1486724584.5826004, 36, -54, 164, -57, -166, -51, -17, -11, 2510, 1390
1486724584.603323, 51, -43, 162, -66, -178, -53, -11, -6, 2510, 1390
1486724584.6033938, 52, -42, 166, -79, -196, -52, -17, -10, 2510, 1390
1486724584.605422, 59, -41, 162, -81, -192, -51, -4, 4, 2510, 1390
1486724584.606608, 57, -47, 144, -72, -181, -54, -11, -13, 2510, 1390
1486724584.6108935, 54, -60, 148, -43, -166, -49, -6, -9, 2510, 1390
1486724584.6127317, 62, -58, 163, -33, -168, -54, -8, -13, 2510, 1390
1486724584.6184382, 50, -52, 167, -73, -203, -51, -8, -3, 2510, 1390
1486724584.6188667, 36, -50, 175, -89, -194, -56, -4, -9, 2510, 1390
1486724584.6238024, 40, -58, 153, -61, -176, -47, -6, -3, 2510, 1390
1486724584.6334133, 31, -55, 169, -64, -187, -48, -9, -9, 2510, 1390
1486724584.634483, 50, -80, 169, -23, -182, -55, -8, 3, 2510, 1390
1486724584.635519, 36, -96, 158, -33, -172, -53, -6, -6, 2510, 1390
1486724584.6480756, 28, -109, 148, -17, -157, -41, 1, -6, 2510, 1390
1486724584.6487467, 1, -135, 140, 24, -121, -48, -6, -12, 2510, 1390
1486724584.6530483, 2, -165, 138, 59, -95, -52, -7, -8, 2510, 1390
1486724584.6559155, -18, -181, 148, 72, -100, -56, -6, -7, 2510, 1390
1486724584.6563528, -26, -201, 147, 75, -102, -54, -6, -6, 2510, 1390
1486724584.6569734, -38, -218, 142, 102, -70, -48, -9, -16, 2510, 1390
1486724584.6704028, -63, -257, 133, 150, -52, -58, -3, -14, 2510, 1390
1486724584.6728432, -66, -273, 128, 171, -40, -58, -17, -12, 2510, 1390
1486724584.6741052, -79, -298, 137, 184, -34, -58, -8, 3, 2510, 1390
1486724584.6851413, -79, -313, 137, 174, -38, -54, -7, -12, 2510, 1390
1486724584.6860068, -92, -330, 129, 209, -25, -53, 0, -10, 2510, 1390
1486724584.6867905, -95, -358, 112, 245, -2, -50, -2, -5, 2510, 1390
1486724584.6925545, -97, -382, 121, 274, 9, -53, -2, -12, 2510, 1390
1486724584.6933205, -104, -407, 113, 289, 18, -46, -4, -11, 2510, 1390
1486724584.6946392, -106, -408, 116, 279, -2, -52, -6, -6, 2510, 1390
1486724584.7078679, -115, -420, 118, 319, 34, -54, -2, -11, 2510, 1390
1486724584.7096, -115, -449, 99, 347, 46, -48, -5, -10, 2510, 1390
1486724584.70998, -114, -461, 105, 358, 46, -45, 3, -13, 2510, 1390
1486724584.7225997, -107, -469, 109, 369, 36, -52, -4, -20, 2510, 1390
1486724584.7235599, -119, -468, 113, 357, 27, -50, 3, -18, 2510, 1390
1486724584.7238464, -123, -475, 101, 366, 38, -50, -8, -10, 2510, 1390
1486724584.7305982, -122, -492, 99, 408, 64, -48, -5, -10, 2510, 1390
1486724584.7317271, -128, -497, 117, 402, 48, -54, -9, -11, 2510, 1390
1486724584.731797, -112, -482, 119, 385, 24, -55, -7, -16, 2510, 1390
1486724584.7348616, -119, -485, 116, 279, -2, -52, 3, -11, 2510, 1390
1486724584.7451305, -114, -489, 103, 384, 43, -51, 1, -9, 2510, 1390
1486724584.7461665, -116, -488, 97, 394, 51, -54, -4, -11, 2510, 1390
1486724584.7476099, -104, -482, 109, 387, 46, -45, 3, -13, 2510, 1390
1486724584.7601144, -116, -487, 106, 375, 25, -53, -11, -7, 2510, 1390
1486724584.7610774, -116, -482, 110, 366, 21, -50, -9, -12, 2510, 1390
1486724584.7614844, -121, -483, 93, 356, 38, -50, -8, -10, 2510, 1390
1486724584.7674963, -116, -487, 105, 398, 55, -44, 6, -13, 2510, 1390
1486724584.7678852, -105, -478, 113, 381, 32, -49, -5, -13, 2510, 1390
1486724584.7687542, -103, -470, 124, 364, 21, -55, -7, -16, 2510, 1390
1486724584.78249, -114, -476, 120, 354, 19, -45, 4, -8, 2510, 1390
1486724584.7828715, -106, -474, 115, 377, 38, -50, -3, -15, 2510, 1390
1486724584.783781, -105, -483, 104, 386, 34, -51, -4, -15, 2510, 1390
1486724584.7975032, -108, -483, 120, 388, 29, -44, -5, -18, 2510, 1390
1486724584.7984753, -117, -480, 132, 382, 16, -44, -6, -12, 2510, 1390
1486724584.7988863, -104, -471, 112, 360, 30, -48, -6, -15, 2510, 1390
1486724584.8049371, -111, -473, 113, 387, 47, -49, -13, -21, 2510, 1390
1486724584.8059309, -119, -478, 121, 404, 42, -57, -7, -17, 2510, 1390
1486724584.806755, -112, -473, 132, 387, 23, -52, -5, -13, 2510, 1390
1486724584.8200421, -118, -468, 136, 372, 15, -49, -8, -21, 2510, 1390
1486724584.8209512, -120, -464, 133, 369, 16, -47, -8, -6, 2510, 1390
1486724584.821757, -120, -477, 128, 387, 42, -48, -1, -10, 2510, 1390
1486724584.83507, -111, -475, 119, 396, 41, -50, -4, -22, 2510, 1390
1486724584.835933, -113, -475, 130, 373, 18, -52, -2, -17, 2510, 1390
1486724584.8392851, -101, -464, 122, 359, 14, -46, -3, -13, 2510, 1390
1486724584.8424811, -120, -470, 122, 361, 12, -45, -3, -15, 2510, 1390
1486724584.843397, -128, -466, 125, 381, 40, -54, -13, -22, 2510, 1390
1486724584.844854, -125, -478, 131, 395, 33, -45, -10, -20, 2510, 1390
1486724584.8574746, -115, -478, 135, 397, 44, -44, 0, -18, 2510, 1390
1486724584.8583722, -121, -475, 138, 373, 17, -49, 0, -8, 2510, 1390
1486724584.860611, -140, -475, 139, 378, 28, -54, -6, -6, 2510, 1390
1486724584.8726068, -141, -482, 144, 404, 48, -51, 0, -9, 2510, 1390
1486724584.8737206, -137, -479, 148, 416, 52, -49, -1, -11, 2510, 1390
1486724584.8748972, -141, -478, 161, 397, 43, -46, -5, -13, 2510, 1390
1486724584.880334, -144, -476, 147, 374, 27, -49, -4, -10, 2510, 1390
1486724584.8806958, -139, -473, 140, 369, 26, -49, -9, -12, 2510, 1390
1486724584.880945, -141, -477, 141, 393, 37, -48, -7, -15, 2510, 1390
1486724584.8958526, -124, -470, 143, 395, 26, -51, -10, -11, 2510, 1390
1486724584.8968582, -140, -471, 156, 368, 11, -55, -9, -6, 2510, 1390
1486724584.8969297, -130, -467, 159, 375, 20, -49, 0, -8, 2510, 1390
1486724584.9100509, -128, -459, 155, 368, 18, -51, 1, -7, 2510, 1390
1486724584.9109318, -136, -468, 150, 389, 34, -43, -6, -16, 2510, 1390
1486724584.9126637, -140, -462, 158, 396, 32, -48, -4, -11, 2510, 1390
1486724584.9175863, -124, -459, 166, 375, 8, -47, -9, -10, 2510, 1390
1486724584.9184709, -133, -460, 159, 359, 9, -49, -6, -10, 2510, 1390
1486724584.9193335, -127, -446, 158, 368, 18, -50, -5, -13, 2510, 1390
1486724584.9324555, -125, -456, 154, 375, 31, -47, -9, -16, 2510, 1390
1486724584.93281, -132, -450, 162, 378, 24, -40, -4, -10, 2510, 1390
1486724584.935857, -114, -437, 165, 370, 15, -44, -11, -9, 2510, 1390
1486724584.9474487, -127, -447, 161, 356, 5, -41, -5, -12, 2510, 1390
1486724584.9482214, -123, -451, 152, 372, 26, -47, -2, -13, 2510, 1390
1486724584.9490883, -126, -459, 150, 387, 43, -43, -7, -6, 2510, 1390
1486724584.9498875, -114, -462, 158, 396, 32, -48, -4, -11, 2510, 1390
1486724584.9550748, -121, -446, 168, 360, 6, -50, -6, -9, 2510, 1390
1486724584.9554229, -125, -445, 155, 340, 3, -49, -4, -13, 2510, 1390
1486724584.9591842, -125, -444, 150, 360, 18, -50, -5, -13, 2510, 1390
1486724584.9701047, -133, -455, 162, 380, 19, -50, -7, -13, 2510, 1390
1486724584.9709454, -126, -452, 165, 395, 36, -47, -4, -6, 2510, 1390
1486724584.971564, -114, -437, 165, 370, 15, -44, -11, -9, 2510, 1390
1486724584.984947, -126, -439, 167, 354, 17, -42, -1, -10, 2510, 1390
1486724584.9859722, -127, -440, 165, 375, 32, -51, -9, -14, 2510, 1390
1486724584.9870358, -130, -449, 167, 387, 43, -43, -7, -6, 2510, 1390
1486724584.9925263, -125, -441, 176, 374, 13, -45, -4, -15, 2510, 1390
1486724584.9932277, -131, -441, 182, 364, 8, -51, -10, -12, 2510, 1390
1486724584.9937027, -131, -432, 182, 353, 13, -38, -4, -13, 2510, 1390
1486724585.007543, -131, -436, 171, 379, 30, -44, 0, -14, 2510, 1390
1486724585.0083215, -131, -437, 174, 390, 38, -47, -7, -10, 2510, 1390
1486724585.010068, -134, -441, 184, 394, 26, -50, -7, -6, 2510, 1390
1486724585.02249, -133, -440, 176, 358, 13, -43, -7, -15, 2510, 1390
1486724585.0234504, -142, -438, 174, 341, 12, -46, -11, -9, 2510, 1390
1486724585.0273128, -136, -438, 169, 377, 41, -45, -13, -15, 2510, 1390
1486724585.0300398, -137, -433, 185, 387, 27, -51, -11, -9, 2510, 1390
1486724585.0306003, -137, -442, 201, 383, 13, -54, -11, -8, 2510, 1390
1486724585.035209, -138, -438, 197, 363, 12, -51, -10, -12, 2510, 1390
1486724585.0450048, -138, -432, 172, 360, 12, -48, -12, -22, 2510, 1390
1486724585.045925, -128, -428, 177, 381, 35, -53, -13, -19, 2510, 1390
1486724585.0461788, -130, -431, 188, 385, 38, -44, -8, -10, 2510, 1390
1486724585.0600777, -126, -427, 197, 367, 8, -52, -2, -5, 2510, 1390
1486724585.060849, -137, -421, 202, 358, 14, -45, -8, -16, 2510, 1390
1486724585.0629597, -156, -434, 186, 357, 33, -49, -5, -9, 2510, 1390
1486724585.067574, -147, -433, 175, 359, 25, -53, -12, -11, 2510, 1390
1486724585.068394, -123, -428, 169, 373, 25, -49, -7, -12, 2510, 1390
1486724585.068991, -143, -427, 201, 374, 35, -47, -9, -6, 2510, 1390
1486724585.0824964, -148, -420, 191, 343, 15, -55, -7, -10, 2510, 1390
1486724585.0834453, -159, -427, 183, 349, 28, -53, -8, -14, 2510, 1390
1486724585.084745, -138, -426, 179, 362, 29, -56, -13, -19, 2510, 1390
1486724585.0984802, -148, -420, 199, 366, 31, -51, -9, -14, 2510, 1390
1486724585.0988472, -144, -415, 211, 353, 14, -53, -2, -20, 2510, 1390
1486724585.0988846, -141, -414, 201, 341, 11, -48, -5, -14, 2510, 1390
1486724585.105027, -133, -402, 201, 350, 19, -50, -2, -7, 2510, 1390
1486724585.105943, -151, -418, 194, 376, 41, -49, -6, -13, 2510, 1390
1486724585.107077, -140, -411, 207, 365, 24, -49, -11, -13, 2510, 1390
1486724585.1205518, -131, -404, 208, 343, 9, -54, -9, -13, 2510, 1390
1486724585.1213236, -132, -398, 199, 332, 14, -44, 3, -5, 2510, 1390
1486724585.1217158, -154, -414, 196, 334, 9, -53, -8, -14, 2510, 1390
1486724585.135132, -137, -411, 176, 359, 36, -49, -5, -3, 2510, 1390
1486724585.1359813, -133, -417, 181, 353, 24, -44, -4, -8, 2510, 1390
1486724585.1373274, -128, -404, 179, 334, 12, -41, -2, -20, 2510, 1390
1486724585.1429172, -132, -408, 183, 331, 9, -51, 0, -12, 2510, 1390
1486724585.1430192, -140, -412, 193, 357, 34, -49, 0, -12, 2510, 1390
1486724585.144501, -139, -403, 186, 363, 39, -48, -4, -13, 2510, 1390
1486724585.1575031, -109, -395, 185, 363, 28, -49, 0, -4, 2510, 1390
1486724585.1583788, -106, -393, 178, 337, 4, -41, -3, -10, 2510, 1390
1486724585.158846, -132, -410, 179, 334, 15, -44, -3, -8, 2510, 1390
1486724585.1644273, -136, -414, 196, 334, 9, -47, -4, -11, 2510, 1390
1486724585.1725554, -132, -415, 182, 357, 29, -49, -3, -10, 2510, 1390
1486724585.1734502, -130, -412, 189, 356, 7, -52, -6, -6, 2510, 1390
1486724585.1750152, -114, -389, 179, 334, 12, -41, -1, -5, 2510, 1390
1486724585.1874793, -123, -394, 191, 337, 14, -47, 5, -15, 2510, 1390
1486724585.1883993, -115, -405, 177, 350, 21, -53, -6, -16, 2510, 1390
1486724585.1914427, -122, -410, 171, 363, 39, -48, -4, -13, 2510, 1390
1486724585.1950462, -112, -389, 197, 362, 11, -47, -2, -12, 2510, 1390
1486724585.1959379, -124, -397, 206, 347, 1, -46, 3, -10, 2510, 1390
1486724585.196617, -139, -407, 204, 355, 16, -44, -3, -8, 2510, 1390
1486724585.2100725, -138, -388, 219, 380, 40, -53, -7, -13, 2510, 1390
1486724585.2110379, -129, -369, 226, 375, 24, -45, -9, -13, 2510, 1390
1486724585.213094, -122, -399, 188, 344, 6, -52, -6, -6, 2510, 1390
1486724585.2175574, -139, -421, 179, 329, 0, -48, -7, -16, 2510, 1390
1486724585.2183182, -148, -424, 179, 336, 7, -48, -4, -16, 2510, 1390
1486724585.2186456, -147, -406, 198, 347, 16, -50, -6, -16, 2510, 1390
1486724585.2325768, -122, -390, 197, 359, 19, -53, -2, -8, 2510, 1390
1486724585.2333183, -120, -389, 205, 336, 3, -48, -8, -12, 2510, 1390
1486724585.2348356, -116, -375, 210, 328, 9, -38, -10, -13, 2510, 1390
1486724585.2475233, -134, -380, 201, 328, 9, -52, -3, -14, 2510, 1390
1486724585.2484584, -131, -375, 211, 356, 21, -48, -8, -16, 2510, 1390
1486724585.2501082, -126, -390, 200, 355, 25, -45, -9, -13, 2510, 1390
1486724585.2550523, -134, -387, 217, 335, 6, -46, 3, -20, 2510, 1390
1486724585.2558208, -151, -385, 206, 330, 7, -48, -5, -14, 2510, 1390
1486724585.259569, -144, -383, 200, 328, 17, -46, -4, -16, 2510, 1390
1486724585.270054, -143, -396, 184, 339, 29, -51, -8, -18, 2510, 1390
1486724585.2709079, -139, -385, 207, 346, 28, -49, -6, -15, 2510, 1390
1486724585.271257, -148, -381, 222, 332, 8, -51, -6, -12, 2510, 1390
1486724585.2850647, -124, -354, 223, 313, 14, -50, -6, -8, 2510, 1390
1486724585.2860088, -137, -371, 210, 334, 20, -49, -7, -10, 2510, 1390
1486724585.2876537, -140, -389, 197, 350, 34, -54, -3, -16, 2510, 1390
1486724585.2925956, -136, -394, 191, 338, 28, -47, -5, -8, 2510, 1390
1486724585.293511, -148, -386, 210, 333, 17, -52, -9, -13, 2510, 1390
1486724585.295037, -165, -384, 227, 330, 12, -48, -13, -10, 2510, 1390
1486724585.307485, -137, -388, 198, 327, 14, -50, -9, -8, 2510, 50
1486724585.3079784, -142, -397, 187, 361, 38, -47, -9, -8, 2510, 50
1486724585.3133297, -136, -377, 213, 350, 26, -49, -6, -15, 2510, 50
1486724585.3224607, -142, -377, 218, 326, 14, -42, -1, -10, 2510, 50
1486724585.3232358, -138, -361, 230, 333, 19, -43, -3, -18, 2510, 50
1486724585.3268929, -134, -360, 215, 328, 41, -49, -7, -10, 2510, 50
1486724585.3307188, -131, -366, 214, 360, 35, -48, -10, -18, 2510, 50
1486724585.3308256, -141, -383, 217, 345, 27, -47, -7, -20, 2510, 50
1486724585.337832, -137, -381, 214, 331, 0, -45, -9, -13, 2510, 50
1486724585.3459344, -133, -371, 227, 335, 13, -51, -10, -12, 2510, 50
1486724585.346006, -136, -366, 212, 338, 27, -52, -9, -10, 2510, 50
1486724585.3511724, -136, -382, 208, 357, 38, -50, -9, -12, 2510, 50
1486724585.360571, -127, -356, 240, 359, 26, -45, -10, -17, 2510, 50
1486724585.3674948, -132, -362, 241, 340, 15, -50, -9, -12, 2510, 50
1486724585.368434, -134, -378, 204, 326, 10, -49, -11, -14, 2510, 50
1486724585.3688726, -139, -383, 200, 331, 29, -50, -7, -13, 2510, 50
1486724585.3706374, -138, -382, 209, 352, 36, -49, -8, -7, 2510, 50
1486724585.375121, -136, -370, 232, 344, 16, -55, -7, -20, 2510, 50
1486724585.383456, -125, -364, 229, 314, -7, -50, -11, -12, 2510, 50
1486724585.3842542, -137, -354, 220, 310, 11, -52, -13, -6, 2510, 50
1486724585.3845422, -118, -353, 212, 333, 17, -54, -9, -10, 2510, 50
1486724585.3985522, -132, -356, 220, 336, 12, -50, -12, -16, 2510, 50
1486724585.3988278, -127, -354, 220, 310, 13, -43, -13, -13, 2510, 50
1486724585.4006984, -129, -354, 214, 303, 0, -47, -15, -14, 2510, 50
1486724585.40568, -140, -362, 210, 312, 12, -43, -5, -9, 2510, 50
1486724585.4061015, -125, -360, 213, 331, 22, -50, -7, -7, 2510, 50
1486724585.4068797, -128, -364, 209, 332, 17, -47, -8, -12, 2510, 50
1486724585.4075665, -128, -360, 222, 344, 16, -55, -13, -8, 2510, 50
1486724585.4207726, -125, -336, 218, 292, -10, -47, -14, -16, 2510, 50
1486724585.421654, -126, -346, 222, 304, 10, -48, 0, -8, 2510, 50
1486724585.4237707, -128, -340, 226, 320, 17, -54, -5, -6, 2510, 50
1486724585.435255, -134, -360, 222, 345, 25, -49, 0, 1, 2510, 50
1486724585.4356904, -119, -349, 228, 315, -3, -44, -3, 2, 2510, 50
1486724585.4396458, -127, -344, 216, 293, 0, -47, -15, -14, 2510, 50
1486724585.4434633, -145, -345, 212, 304, 17, -49, -1, -6, 2510, 50
1486724585.4445617, -125, -351, 208, 340, 34, -44, -7, -6, 2510, 50
1486724585.4468148, -139, -352, 223, 327, 17, -47, -8, -12, 2510, 50
1486724585.4584715, -143, -347, 244, 334, 1, -50, -10, -6, 2510, 50
1486724585.458745, -145, -361, 236, 313, 3, -48, -9, -13, 2510, 50
1486724585.4610248, -145, -348, 230, 321, 21, -48, 0, -8, 2510, 50
1486724585.4747102, -134, -343, 228, 336, 26, -45, 2, -9, 2510, 50
1486724585.4747822, -131, -341, 244, 337, 15, -54, -8, -6, 2510, 50
1486724585.4762201, -130, -338, 247, 301, -13, -53, -3, 2, 2510, 50
1486724585.4809158, -138, -336, 239, 292, -7, -46, 3, -6, 2510, 50
1486724585.4813833, -147, -341, 227, 292, 10, -48, 1, -4, 2510, 50
1486724585.482042, -140, -343, 215, 309, 7, -50, -7, -6, 2510, 50
1486724585.4950047, -121, -339, 226, 322, 16, -47, -7, -7, 2510, 50
1486724585.4957354, -140, -341, 233, 300, -10, -50, -10, -13, 2510, 50
1486724585.4975731, -134, -334, 238, 298, -4, -50, -2, -13, 2510, 50
1486724585.510957, -133, -344, 232, 309, -2, -45, -4, -12, 2510, 50
1486724585.513667, -134, -343, 226, 332, 21, -48, -11, -16, 2510, 50
1486724585.5158908, -122, -340, 235, 322, 10, -44, -10, -11, 2510, 50
1486724585.5182474, -130, -326, 240, 305, 3, -42, -8, -16, 2510, 50
1486724585.5183117, -136, -336, 225, 288, 11, -40, -7, -14, 2510, 50
1486724585.5218842, -133, -340, 214, 308, 19, -38, -5, -8, 2510, 50
1486724585.5335357, -122, -339, 217, 322, 23, -44, -4, -12, 2510, 50
1486724585.5346625, -116, -332, 221, 298, -2, -45, -7, -12, 2510, 50
1486724585.537403, -125, -337, 223, 274, -23, -50, -10, -13, 2510, 50
1486724585.547537, -136, -341, 229, 283, -1, -52, -4, -8, 2510, 50
1486724585.547869, -165, -328, 255, 301, 8, -52, -9, -13, 2510, 50
1486724585.5508027, -160, -339, 255, 321, 18, -48, -11, -16, 2510, 50
1486724585.555162, -153, -339, 268, 319, 19, -48, -15, -12, 2510, 50
1486724585.5557952, -179, -334, 283, 279, -7, -44, -9, -14, 2510, 50
1486724585.5569735, -225, -329, 308, 287, 19, -46, -7, -14, 2510, 50
1486724585.5711029, -258, -343, 328, 303, 34, -42, -4, -12, 2510, 50
1486724585.5718973, -313, -365, 361, 319, 41, -42, -2, -2, 2510, 50
1486724585.5719705, -347, -368, 391, 314, 52, -43, 1, -5, 2510, 50
1486724585.5851762, -374, -358, 419, 298, 46, -41, -2, -15, 2510, 50
1486724585.5860786, -423, -355, 445, 313, 62, -40, 0, -5, 2510, 50
1486724585.5870557, -449, -371, 459, 321, 75, -52, -9, -13, 2510, 50
1486724585.5925238, -480, -375, 489, 344, 85, -44, -10, -17, 2510, 50
1486724585.5929472, -489, -370, 507, 323, 77, -49, -6, -11, 2510, 50
1486724585.595485, -501, -369, 516, 299, 57, -43, -1, -8, 2510, 50
1486724585.6076467, -520, -379, 506, 305, 82, -41, -4, -11, 2510, 50
1486724585.6086001, -509, -380, 499, 325, 85, -58, -9, -16, 2510, 50
1486724585.6101246, -502, -381, 506, 326, 72, -42, -2, -2, 2510, 50
1486724585.6224558, -506, -382, 500, 311, 59, -48, -8, -13, 2510, 50
1486724585.6234815, -473, -377, 478, 289, 57, -45, -8, -18, 2510, 50
1486724585.6245615, -486, -391, 460, 297, 67, -43, -6, -12, 2510, 50
1486724585.630042, -480, -398, 454, 317, 72, -51, -9, -11, 2510, 50
1486724585.6308935, -476, -401, 447, 306, 61, -55, -11, -11, 2510, 50
1486724585.631313, -459, -387, 443, 290, 37, -47, -9, -20, 2510, 50
1486724585.638104, -450, -369, 516, 299, 57, -43, -1, -8, 2510, 50
1486724585.6451895, -453, -390, 415, 265, 38, -49, -6, -10, 2510, 50
1486724585.6462119, -446, -396, 411, 275, 45, -50, -12, -9, 2510, 50
1486724585.6600332, -427, -391, 406, 269, 32, -48, -7, -12, 2510, 50
1486724585.660618, -432, -389, 411, 250, 21, -45, -4, -15, 2510, 50
1486724585.6609337, -422, -375, 409, 250, 19, -50, -10, -13, 2510, 50
1486724585.6671665, -425, -391, 460, 297, 67, -43, -6, -12, 2510, 50
1486724585.6675608, -427, -400, 399, 267, 29, -47, -10, -18, 2510, 50
1486724585.6678047, -418, -391, 395, 255, 61, -55, -11, -11, 2510, 50
1486724585.6824198, -417, -386, 396, 241, 5, -38, -3, -20, 2510, 50
1486724585.6838312, -411, -379, 387, 241, 24, -39, -1, -13, 2510, 50
1486724585.6839116, -394, -371, 385, 260, 38, -49, -6, -10, 2510, 50
1486724585.697511, -396, -384, 388, 247, 1, -42, -8, -16, 2510, 50
1486724585.6983435, -394, -371, 379, 211, -10, -37, -8, -11, 2510, 50
1486724585.6986487, -392, -375, 384, 214, 1, -45, -4, -15, 2510, 50
1486724585.7050402, -414, -381, 380, 235, 13, -48, -9, -10, 2510, 50
1486724585.705763, -410, -378, 394, 252, 15, -52, -8, -10, 2510, 50
1486724585.7066705, -403, -377, 388, 250, 7, -48, -10, -18, 2510, 50
1486724585.7200494, -402, -362, 405, 225, -2, -45, -14, -22, 2510, 50
1486724585.7209408, -409, -365, 390, 209, 0, -49, -11, -16, 2510, 50
1486724585.7244859, -411, -369, 389, 236, 15, -40, -1, -21, 2510, 50
1486724585.7349293, -420, -377, 395, 249, 12, -47, 1, -9, 2510, 50
1486724585.7357352, -403, -367, 401, 244, 6, -47, -9, -13, 2510, 50
1486724585.7373893, -391, -361, 388, 208, -13, -40, -14, -18, 2510, 50
1486724585.7424624, -394, -362, 377, 211, 0, -37, -8, -12, 2510, 50
1486724585.7433896, -408, -366, 368, 227, 16, -44, -5, -17, 2510, 50
1486724585.7456348, -397, -376, 377, 242, 14, -38, -8, -12, 2510, 50
1486724585.7575605, -397, -375, 382, 225, 7, -46, -13, -15, 2510, 50
1486724585.7579405, -405, -367, 376, 195, -14, -44, -10, -11, 2510, 50
1486724585.7584765, -414, -369, 389, 220, 0, -49, -11, -16, 2510, 50
1486724585.77258, -410, -364, 391, 241, 21, -54, -11, -10, 2510, 50
1486724585.7729912, -410, -371, 379, 236, 10, -51, -7, -12, 2510, 50
1486724585.7741241, -395, -357, 394, 222, 2, -47, -9, -13, 2510, 50
1486724585.780972, -402, -358, 387, 198, -16, -49, -2, -10, 2510, 50
1486724585.7819161, -400, -355, 381, 213, 6, -44, -4, -13, 2510, 50
1486724585.781988, -400, -361, 372, 225, 14, -44, -3, -17, 2510, 50
1486724585.795106, -399, -366, 384, 238, 23, -49, -10, -19, 2510, 50
1486724585.7960744, -384, -352, 379, 227, 6, -51, -14, -10, 2510, 50
1486724585.7982094, -395, -348, 387, 197, -17, -47, -7, -12, 2510, 50
1486724585.810082, -395, -352, 388, 216, 4, -50, -5, -15, 2510, 50
1486724585.8111107, -407, -362, 377, 238, 23, -44, -5, -17, 2510, 50
1486724585.8113592, -385, -353, 374, 230, 24, -47, -10, -12, 2510, 50
1486724585.8176036, -378, -343, 386, 210, -7, -48, -7, -17, 2510, 50
1486724585.8186166, -383, -340, 379, 197, -7, -48, -8, -14, 2510, 50
1486724585.8195586, -388, -348, 366, 218, 10, -42, -5, -15, 2510, 50
1486724585.840059, -385, -352, 365, 228, 25, -44, -2, -12, 2510, 50
1486724585.840877, -389, -359, 376, 236, 12, -47, -7, -17, 2510, 50
1486724585.8414347, -382, -344, 387, 215, -12, -45, -2, -8, 2510, 50
1486724585.8445492, -388, -348, 386, 205, -5, -47, -7, -12, 2510, 50
1486724585.8478749, -395, -356, 374, 205, 7, -46, -4, -10, 2510, 50
1486724585.850858, -376, -350, 368, 218, 7, -45, -6, -10, 2510, 50
1486724585.8561125, -369, -345, 377, 217, -5, -42, -4, -9, 2510, 50
1486724585.857027, -357, -331, 384, 205, -24, -40, -5, -9, 2510, 50
1486724585.8570766, -363, -323, 369, 165, -37, -44, -13, -13, 2510, 50
1486724585.8700607, -361, -330, 359, 195, 4, -40, -8, -12, 2510, 50
1486724585.8708625, -368, -337, 357, 205, 7, -44, -6, -11, 2510, 50
1486724585.8714066, -357, -331, 368, 200, -5, -35, -5, -11, 2510, 50
1486724585.8717487, -382, -344, 387, 215, -12, -45, -2, -8, 2510, 50
1486724585.885084, -374, -324, 379, 180, -17, -44, -5, -11, 2510, 50
1486724585.885982, -383, -338, 366, 203, 6, -43, -13, -3, 2510, 50
1486724585.8869178, -380, -347, 368, 218, 7, -45, -6, -10, 2510, 50
1486724585.8925092, -378, -327, 383, 207, -2, -41, -11, -9, 2510, 50
1486724585.8930035, -369, -326, 392, 190, -22, -43, -11, -12, 2510, 50
1486724585.8935556, -378, -334, 382, 189, -37, -44, -13, -13, 2510, 50
1486724585.9075568, -377, -336, 373, 195, -6, -56, -11, -12, 2510, 50
1486724585.9082742, -379, -345, 356, 208, 8, -53, -12, -14, 2510, 50
1486724585.9099824, -368, -344, 367, 198, -6, -44, -8, -11, 2510, 50
1486724585.9227295, -363, -327, 380, 189, -8, -35, -3, -7, 2510, 50
1486724585.9233727, -371, -321, 377, 187, -17, -41, -2, -8, 2510, 50
1486724585.924074, -368, -328, 377, 215, 5, -37, -1, -12, 2510, 50
1486724585.9300299, -363, -329, 363, 209, 3, -46, 1, -12, 2510, 50
1486724585.9309928, -371, -332, 384, 203, -11, -43, -2, -12, 2510, 50
1486724585.9316983, -368, -320, 390, 175, -22, -43, -11, -12, 2510, 50
1486724585.945068, -378, -327, 375, 196, 2, -41, -5, -12, 2510, 50
1486724585.9459965, -377, -338, 370, 207, 18, -47, -6, -19, 2510, 50
1486724585.947596, -374, -333, 379, 217, 1, -46, -12, -14, 2510, 50
1486724585.9607754, -363, -322, 395, 202, -16, -46, -6, -16, 2510, 50
1486724585.9629176, -365, -320, 389, 189, -21, -51, -13, -19, 2510, 50
1486724585.9643242, -372, -320, 375, 179, -10, -52, -12, -12, 2510, 50
1486724585.9676, -367, -326, 364, 203, 3, -47, -8, -10, 2510, 50
1486724585.9684458, -359, -331, 352, 203, 4, -43, -3, -7, 2510, 50
1486724585.9709005, -361, -325, 369, 193, -11, -43, -8, -8, 2510, 50
1486724585.982552, -355, -325, 369, 174, -30, -45, -9, -13, 2510, 50
1486724585.9834921, -353, -324, 362, 176, -20, -43, -4, -7, 2510, 50
1486724585.986926, -356, -328, 362, 201, 254, -47, -6, -19, 2510, 50
1486724585.9977531, -346, -330, 355, 196, -2, -33, -4, -16, 2510, 50
1486724585.998409, -351, -324, 369, 179, -24, -32, -8, -18, 2510, 50
1486724586.0002856, -341, -311, 365, 174, -27, -46, -7, -19, 2510, 50
1486724586.0053508, -353, -323, 366, 187, -15, -47, -12, -17, 2510, 50
1486724586.0057416, -350, -316, 348, 196, 4, -33, -5, -15, 2510, 50
1486724586.0060983, -352, -322, 362, 200, -12, -43, -14, -13, 2510, 50
1486724586.020048, -350, -312, 372, 174, -23, -43, -15, -19, 2510, 50
1486724586.021131, -345, -308, 371, 169, -30, -40, -14, -6, 2510, 50
1486724586.023842, -347, -306, 363, 174, -10, -43, -4, -7, 2510, 50
1486724586.0349965, -351, -317, 362, 204, 5, -33, 0, -15, 2510, 50
1486724586.0360858, -342, -315, 354, 178, -22, -41, -10, -9, 2510, 50
1486724586.0373735, -342, -318, 366, 181, -18, -42, -2, -18, 2510, 50
1486724586.04254, -344, -310, 361, 163, -28, -41, -6, -16, 2510, 50
1486724586.0435061, -336, -309, 346, 162, -19, -49, -7, -16, 2510, 50
1486724586.0443008, -342, -308, 356, 202, 0, -46, -8, -15, 2510, 50
1486724586.0576706, -326, -305, 347, 178, -8, -42, -9, -10, 2510, 50
1486724586.0583768, -337, -302, 353, 162, -18, -36, -11, -7, 2510, 50
1486724586.05991, -346, -308, 362, 168, -20, -35, -5, -13, 2510, 50
1486724586.0724838, -341, -305, 355, 162, -18, -41, -6, -11, 2510, 50
1486724586.0727699, -331, -304, 356, 183, -10, -45, -11, -10, 2510, 50
1486724586.0744307, -338, -306, 374, 178, -25, -38, -4, -8, 2510, 50
1486724586.074753, -342, -318, 366, 181, -18, -42, -2, -12, 2510, 50
1486724586.080206, -332, -296, 356, 133, -47, -42, -8, -16, 2510, 50
1486724586.0806336, -335, -293, 347, 155, -19, -43, -10, -16, 2510, 50
1486724586.0950632, -339, -306, 346, 169, -9, -40, -9, -12, 2510, 50
1486724586.0954587, -333, -297, 349, 144, -40, -37, -6, -10, 2510, 50
1486724586.0974152, -323, -290, 357, 130, -48, -40, -9, -9, 2510, 50
1486724586.110105, -341, -298, 344, 130, -55, -45, -14, -16, 2510, 50
1486724586.1106608, -333, -285, 334, 154, -11, -39, -9, -10, 2510, 50
1486724586.1115234, -316, -286, 341, 170, -27, -39, -11, -6, 2510, 50
1486724586.1161764, -315, -286, 374, 178, -25, -38, -4, -8, 2510, 50
1486724586.1175332, -314, -279, 350, 134, -51, -40, -7, -19, 2510, 50
1486724586.1182945, -319, -288, 338, 129, -46, -43, 0, -14, 2510, 50
1486724586.1221879, -324, -292, 330, 160, -19, -43, -10, -15, 2510, 50
1486724586.132538, -316, -290, 329, 152, -23, -42, -9, -8, 2510, 50
1486724586.133474, -299, -282, 338, 152, -21, -35, -2, -9, 2510, 50
1486724586.1383228, -314, -274, 342, 128, -48, -44, -9, -9, 2510, 50
1486724586.147526, -312, -277, 340, 136, -36, -48, -8, -16, 2510, 50
1486724586.1484425, -312, -279, 340, 155, -29, -43, -13, -14, 2510, 50
1486724586.1491654, -312, -281, 346, 149, -27, -43, -13, -13, 2510, 50
1486724586.1549134, -308, -287, 342, 143, -34, -36, -5, -13, 2510, 50
1486724586.1552527, -307, -283, 345, 135, -51, -38, -1, -7, 2510, 50
1486724586.1561549, -317, -288, 330, 142, -46, -43, 0, -14, 2510, 50
1486724586.17005, -324, -296, 327, 161, 0, -35, -8, -17, 2510, 50
1486724586.1706588, -305, -292, 335, 164, -17, -38, -6, -10, 2510, 50
1486724586.1761782, -301, -292, 337, 129, -49, -40, -6, -12, 2510, 50
1486724586.1850362, -312, -286, 340, 149, -30, -39, -5, -13, 2510, 50
1486724586.1859925, -307, -289, 340, 157, -29, -40, -8, -16, 2510, 50
1486724586.18645, -317, -283, 351, 180, -4, -43, -13, -14, 2510, 50
1486724586.1925576, -307, -295, 334, 169, -23, -41, -7, -8, 2510, 50
1486724586.1934996, -304, -278, 350, 143, -48, -37, -6, -14, 2510, 50
1486724586.1942935, -294, -285, 336, 139, -34, -37, -1, -7, 2510, 50
1486724586.2076895, -311, -288, 337, 147, -28, -44, -10, -15, 1280, 720
1486724586.2084877, -309, -290, 328, 158, -12, -38, -8, -2, 1280, 720
1486724586.2103016, -309, -291, 337, 154, -26, -37, -8, -8, 1280, 720
1486724586.2227416, -302, -286, 353, 150, -38, -44, -8, -12, 1280, 720
1486724586.223244, -295, -283, 341, 135, -38, -36, -14, -14, 1280, 720
1486724586.2242815, -296, -287, 328, 145, -22, -41, -8, -3, 1280, 720
1486724586.2301571, -307, -285, 334, 162, -12, -37, 1, -3, 1280, 720
1486724586.2308815, -294, -284, 343, 146, -47, -44, -9, -10, 1280, 720
1486724586.2333822, -307, -292, 333, 134, -54, -42, -11, -9, 1280, 720
1486724586.2450933, -297, -278, 336, 136, -38, -36, -4, -14, 1280, 720
1486724586.2460003, -305, -276, 327, 152, -34, -43, -7, -10, 1280, 720
1486724586.2467499, -300, -283, 328, 170, -20, -38, -8, -2, 1280, 720
1486724586.259858, -305, -284, 336, 149, -44, -32, -5, -15, 1280, 720
1486724586.2649128, -290, -276, 329, 124, -49, -42, -9, -15, 1280, 720
1486724586.2650034, -293, -268, 325, 117, -43, -41, -255, -14, 1280, 720
1486724586.2675514, -290, -276, 311, 144, -26, -35, -8, -25, 1280, 720
1486724586.2684562, -287, -280, 321, 164, -24, -41, -9, -17, 1280, 720
1486724586.2694027, -282, -281, 313, 134, -47, -47, -11, -10, 1280, 720
1486724586.283094, -275, -274, 321, 115, -47, -41, -3, -4, 1280, 720
1486724586.2834373, -303, -269, 315, 111, -49, -42, -4, -3, 1280, 720
1486724586.2860825, -284, -274, 305, 142, -28, -32, -2, -12, 1280, 720
1486724586.2976322, -283, -262, 331, 138, -34, -42, -5, -17, 1280, 720
1486724586.2985127, -272, -249, 325, 120, -38, -39, -10, -18, 1280, 720
1486724586.3019385, -276, -258, 325, 100, -72, -41, -12, -11, 1280, 720
1486724586.3051608, -276, -256, 310, 113, -32, -39, -12, -15, 1280, 720
1486724586.3055477, -277, -262, 306, 136, -22, -38, -3, -11, 1280, 720
1486724586.31064, -284, -262, 314, 135, -28, -41, -9, -17, 1280, 720
1486724586.3200614, -268, -262, 311, 122, -31, -38, -4, -10, 1280, 720
1486724586.3207226, -283, -255, 323, 112, -42, -37, -9, -11, 1280, 720
1486724586.3225138, -283, -258, 314, 120, -28, -40, -4, -3, 1280, 720
1486724586.33506, -279, -256, 305, 119, -40, -43, -9, -10, 1280, 720
1486724586.336016, -280, -266, 310, 143, -26, -37, -12, -16, 1280, 720
1486724586.340339, -273, -257, 317, 113, -50, -37, -12, -9, 1280, 720
1486724586.3425097, -281, -245, 324, 102, -55, -44, -9, -14, 1280, 720
1486724586.3434267, -283, -246, 308, 107, -38, -42, -9, -12, 1280, 720
1486724586.3438761, -278, -253, 295, 122, -28, -44, -5, -17, 1280, 720
1486724586.345671, -261, -249, 314, 135, -28, -38, -4, -6, 1280, 720
1486724586.3575912, -276, -246, 330, 119, -47, -27, -8, -17, 1280, 720
1486724586.3584368, -274, -247, 324, 110, -40, -38, -6, -10, 1280, 720
1486724586.361657, -291, -255, 317, 123, -28, -40, 0, -7, 1280, 720
1486724586.3725922, -286, -253, 311, 142, -14, -46, -7, -16, 1280, 720
1486724586.373516, -285, -258, 321, 144, -36, -40, -12, -16, 1280, 720
1486724586.3758035, -283, -253, 326, 113, -50, -37, -12, -9, 1280, 720
1486724586.3800642, -283, -247, 316, 98, -42, -37, -9, -19, 1280, 720
1486724586.3810077, -294, -253, 305, 112, -32, -45, -6, -15, 1280, 720
1486724586.3830032, -274, -250, 307, 138, -29, -44, -5, -17, 1280, 720
1486724586.3950455, -280, -256, 318, 116, -46, -45, -3, -11, 1280, 720
1486724586.3960512, -254, -240, 320, 111, -46, -35, -9, -14, 1280, 720
1486724586.397367, -274, -244, 314, 106, -49, -45, -6, -10, 1280, 720
1486724586.4175868, -277, -248, 302, 130, -21, -46, -15, -14, 1280, 720
1486724586.4184241, -277, -249, 298, 128, -28, -47, -8, -5, 1280, 720
1486724586.4189672, -267, -242, 312, 114, -46, -38, -8, -16, 1280, 720
1486724586.4197834, -260, -236, 305, 96, -49, -44, -11, -16, 1280, 720
1486724586.4251745, -265, -241, 306, 93, -57, -39, 2, -7, 1280, 720
1486724586.4264987, -269, -247, 297, 115, -22, -38, 7, -10, 1280, 720
1486724586.4325857, -260, -247, 295, 152, -14, -45, -2, -18, 1280, 720
1486724586.4335291, -262, -250, 314, 136, -46, -38, -5, -6, 1280, 720
1486724586.43781, -236, -210, 309, 78, -71, -35, -9, -14, 1280, 720
1486724586.4476926, -220, -191, 282, 61, -57, -43, -4, -7, 1280, 720
1486724586.4483848, -211, -183, 268, 58, -52, -44, -6, -11, 1280, 720
1486724586.450565, -183, -162, 269, 62, -46, -42, -8, -5, 1280, 720
1486724586.4553032, -174, -130, 278, 34, -70, -35, -6, -17, 1280, 720
1486724586.4558272, -158, -96, 283, -8, -104, -44, -9, -19, 1280, 720
1486724586.4591813, -143, -72, 259, -5, -73, -42, -6, -7, 1280, 720
1486724586.4700773, -112, -47, 253, 0, -60, -42, -12, -14, 1280, 720
1486724586.4710996, -92, -28, 256, -1, -59, -33, -6, -13, 1280, 720
1486724586.4723618, -90, -9, 272, -26, -81, -38, -5, -6, 1280, 720
1486724586.4850488, -55, 25, 259, -58, -97, -41, -9, -17, 1280, 720
1486724586.4860525, -54, 44, 250, -72, -96, -48, -8, -14, 1280, 720
1486724586.487559, -37, 56, 251, -53, -74, -44, -10, -11, 1280, 720
1486724586.492621, -33, 58, 246, -66, -92, -44, -5, -8, 1280, 720
1486724586.49355, -12, 61, 252, -72, -108, -41, -9, -15, 1280, 720
1486724586.496062, -15, 51, 240, -87, -120, -46, -10, -19, 1280, 720
1486724586.5075943, -10, 60, 225, -88, -103, -40, -6, -12, 1280, 720
1486724586.5120091, -32, 47, 231, -54, -81, -36, -8, -14, 1280, 720
1486724586.514753, -16, 51, 242, -57, -83, -49, -14, -16, 1280, 720
1486724586.527405, -27, 53, 243, -72, -101, -41, -11, -14, 1280, 720
1486724586.5275078, -25, 51, 243, -76, -105, -42, -8, -15, 1280, 720
1486724586.529653, -20, 54, 224, -66, -90, -43, -13, -14, 1280, 720
1486724586.5300417, -24, 51, 216, -59, -85, -41, -17, -15, 1280, 720
1486724586.5326164, -12, 51, 223, -60, -86, -38, -11, -14, 1280, 720
1486724586.5354571, -14, 56, 244, -74, -106, -41, -9, -15, 1280, 720
1486724586.546043, -9, 55, 236, -81, -108, -39, -2, -13, 1280, 720
1486724586.5472615, -22, 52, 233, -58, -87, -38, -6, -16, 1280, 720
1486724586.5485005, -30, 45, 233, -40, -77, -38, -4, -14, 1280, 720
1486724586.5610292, -4, 53, 234, -49, -95, -41, -8, -13, 1280, 720
1486724586.5613234, -2, 60, 243, -65, -103, -37, -4, -11, 1280, 720
1486724586.566644, -2, 61, 234, -73, -107, -39, -11, -7, 1280, 720
1486724586.5679455, -5, 47, 223, -58, -95, -39, -9, -12, 1280, 720
1486724586.5691836, -5, 45, 218, -53, -90, -39, -9, -17, 1280, 720
1486724586.570357, -1, 46, 229, -50, -102, -44, -8, -20, 1280, 720
1486724586.5717335, -14, 56, 244, -74, -106, -35, -6, -13, 1280, 720
1486724586.5828798, 2, 51, 219, -63, -100, -42, -6, -15, 1280, 720
1486724586.5855496, -22, 52, 233, -58, -87, -38, -6, -16, 1280, 720
1486724586.5986392, 1, 47, 221, -63, -100, -37, -5, -15, 1280, 720
1486724586.5987036, 12, 64, 234, -79, -114, -36, -10, -16, 1280, 720
1486724586.5995266, 11, 56, 243, -65, -103, -37, -4, -11, 1280, 720
1486724586.6060345, 9, 48, 215, -76, -105, -40, -13, -17, 1280, 720
1486724586.6061072, 13, 43, 207, -56, -104, -40, -15, -15, 1280, 720
1486724586.6066477, 16, 53, 225, -69, -108, -35, -9, -17, 1280, 720
1486724586.6211483, 14, 51, 223, -87, -127, -41, -8, -16, 1280, 720
1486724586.621219, 15, 53, 217, -83, -117, -35, -3, -11, 1280, 720
1486724586.6226304, 12, 55, 219, -63, -100, -42, -6, -15, 1280, 720
1486724586.6351495, 15, 47, 211, -62, -107, -34, -8, -23, 1280, 720
1486724586.6361732, 10, 54, 226, -70, -127, -39, -11, -18, 1280, 720
1486724586.6373003, 4, 51, 223, -92, -114, -36, -10, -16, 1280, 720
1486724586.643537, 12, 59, 210, -85, -125, -42, -4, -11, 1280, 720
1486724586.643607, 4, 54, 208, -72, -112, -41, -4, -17, 1280, 720
1486724586.6484373, 7, 55, 215, -59, -110, -40, -15, -15, 1280, 720
1486724586.6586685, 9, 59, 227, -91, -139, -38, -8, -17, 1280, 720
1486724586.6644733, 25, 67, 226, -91, -126, -39, -3, -12, 1280, 720
1486724586.6645443, 15, 56, 213, -89, -124, -39, -7, -18, 1280, 720
1486724586.6727178, 9, 47, 203, -75, -113, -39, -5, -16, 1280, 720
1486724586.6732183, 2, 47, 211, -66, -111, -39, -2, -8, 1280, 720
1486724586.6734807, 24, 55, 214, -74, -117, -41, -4, -16, 1280, 720
1486724586.6801026, 13, 52, 207, -100, -131, -34, -6, -11, 1280, 720
1486724586.6810677, 3, 46, 209, -80, -113, -28, 0, -15, 1280, 720
1486724586.6821785, 14, 48, 197, -73, -113, -41, -7, -17, 1280, 720
1486724586.6951158, 18, 49, 200, -63, -106, -42, -4, -17, 1280, 720
1486724586.6958325, 25, 53, 211, -84, -125, -40, -4, -8, 1280, 720
1486724586.6976445, 23, 57, 210, -93, -129, -46, -4, -12, 1280, 720
1486724586.7100868, 27, 48, 190, -89, -109, -41, -7, -19, 1280, 720
1486724586.7110252, 22, 47, 182, -76, -103, -39, -3, -13, 1280, 720
1486724586.7136397, 23, 43, 192, -78, -101, -44, -10, -17, 1280, 720
1486724586.7185297, 13, 50, 206, -117, -139, -42, -4, -20, 1280, 720
1486724586.7186668, 22, 56, 197, -100, -128, -37, -5, -17, 1280, 720
1486724586.720692, 26, 51, 185, -98, -131, -41, -15, -17, 1280, 720
1486724586.7351303, 31, 49, 183, -81, -106, -44, -4, -13, 1280, 720
1486724586.7352014, 27, 45, 182, -83, -121, -36, -5, -6, 1280, 720
1486724586.7368674, 31, 51, 191, -99, -135, -37, -6, -8, 1280, 720
1486724586.7475703, 24, 58, 199, -96, -122, -33, -5, -16, 1280, 720
1486724586.7485824, 28, 53, 187, -92, -118, -32, -4, -11, 1280, 720
1486724586.7512777, 30, 47, 180, -76, -91, -34, -2, -13, 1280, 720
1486724586.7559166, 39, 52, 199, -76, -124, -30, -3, -18, 1280, 720
1486724586.7567804, 37, 57, 199, -98, -145, -35, -6, -15, 1280, 720
1486724586.7568178, 43, 64, 194, -115, -143, -38, -8, -15, 1280, 720
1486724586.771022, 31, 51, 179, -98, -116, -35, -6, -19, 1280, 720
1486724586.77207, 26, 45, 184, -75, -117, -37, -14, -13, 1280, 720
1486724586.7723317, 38, 41, 184, -82, -122, -36, -5, -6, 1280, 720
1486724586.7875197, 38, 47, 186, -104, -135, -41, -2, -12, 1280, 720
1486724586.787592, 27, 54, 188, -112, -137, -33, -2, -10, 1280, 720
1486724586.7895837, 14, 40, 193, -77, -101, -40, -4, -11, 1280, 720
1486724586.793579, 22, 48, 186, -66, -105, -35, -3, -17, 1280, 720
1486724586.7947261, 36, 55, 197, -79, -113, -34, -7, -16, 1280, 720
1486724586.7957835, 24, 57, 202, -114, -150, -35, -6, -15, 1280, 720
1486724586.8084145, 27, 54, 194, -109, -144, -38, -9, -18, 1280, 720
1486724586.8084807, 33, 52, 186, -69, -102, -31, -10, -17, 1280, 720
1486724586.810456, 18, 47, 186, -68, -99, -34, -11, -14, 1280, 720
1486724586.822834, 29, 50, 191, -85, -131, -29, -2, -4, 1280, 720
1486724586.823186, 30, 49, 189, -97, -128, -36, -5, -15, 1280, 720
1486724586.8262448, 29, 50, 184, -93, -118, -32, -7, -8, 1280, 720
1486724586.8266287, 18, 40, 193, -77, -101, -40, -3, -11, 1280, 720
1486724586.831488, 35, 45, 172, -82, -109, -35, -8, -20, 1280, 720
1486724586.832471, 29, 44, 194, -76, -118, -35, -8, -11, 1280, 720
1486724586.846525, 39, 57, 199, -95, -135, -38, -7, -14, 1280, 720
1486724586.8465984, 36, 53, 185, -97, -120, -29, 0, -11, 1280, 720
