t, ch0, ch1, ch2, ch3, ch4, ch5, ch6, ch7, x, y
1486724867.6306322, -35, -71, -187, -28, 62, -4, -6, -17, 0, 0
1486724867.6306708, -32, -76, -173, -35, 49, -8, -16, -14, 0, 0
1486724867.6306956, -24, -68, -174, -61, 40, -11, -14, -18, 0, 0
1486724867.6307166, -35, -63, -180, -50, 44, -17, -11, -15, 0, 0
1486724867.6307364, -42, -79, -181, -23, 62, -11, -7, -9, 0, 0
1486724867.630767, -40, -78, -180, -17, 58, -15, -17, -19, 0, 0
1486724867.6307957, -33, -72, -174, -41, 46, -11, -17, -18, 0, 0
1486724867.6308274, -25, -60, -177, -70, 30, -9, -12, -13, 0, 0
1486724867.630856, -35, -64, -168, -53, 36, -11, -9, -14, 0, 0
1486724867.6308746, -14, -64, -190, -76, 26, -10, -9, -9, 0, 0
1486724867.6308932, -21, -65, -196, -59, 36, -14, -9, -11, 0, 0
1486724867.630925, -26, -77, -195, -29, 53, -12, -6, -14, 0, 0
1486724867.6309443, -15, -72, -193, -42, 43, -20, -16, -14, 0, 0
1486724867.6309736, -24, -65, -194, -23, 62, -13, -14, -22, 0, 0
1486724867.6310368, -22, -47, -168, -84, 9, -11, -18, -19, 0, 0
1486724867.6310647, 40, 27, -186, -113, 16, -4, -15, -10, 0, 0
1486724867.631089, 158, 176, -206, -195, -12, -17, -16, -12, 0, 0
1486724867.6311111, 146, 182, -196, -219, -27, -6, -11, -10, 0, 0
1486724867.6311324, 150, 181, -208, -213, -12, -11, -13, -11, 0, 0
1486724867.6311734, 146, 176, -217, -187, 5, -11, -11, -21, 0, 0
1486724867.6311934, 152, 171, -193, -198, -21, -13, -13, -8, 0, 0
1486724867.6312125, 159, 180, -195, -215, -30, -10, -11, -17, 0, 0
1486724867.6315753, 158, 179, -202, -207, -22, -18, -11, -21, 0, 0
1486724867.6316116, 157, 174, -209, -184, -2, -14, -13, -11, 0, 0
1486724867.6316354, 143, 175, -181, -201, -21, -7, -19, -16, 0, 0
1486724867.6316562, 144, 172, -190, -212, -24, -13, -17, -16, 0, 0
1486724867.631676, 137, 161, -200, -168, 10, -16, -14, -6, 0, 0
1486724867.631695, 137, 170, -184, -177, -8, -17, -18, -15, 0, 0
1486724867.6317136, 191, 208, -197, -210, -34, -18, -12, -14, 0, 0
1486724867.6317325, 189, 210, -196, -236, -50, -21, -11, -8, 0, 0
1486724867.6317508, 173, 211, -196, -235, -34, -11, -9, -15, 0, 0
1486724867.6317692, 177, 208, -203, -212, -25, -9, -2, -7, 0, 0
1486724867.6317873, 168, 202, -204, -217, -26, -24, -20, -16, 0, 0
1486724867.6318057, 186, 201, -212, -197, -12, -12, -12, -4, 0, 0
1486724867.6318238, 192, 197, -200, -200, -18, -14, -13, -15, 0, 0
1486724867.6318424, 186, 206, -195, -222, -38, -7, -11, -12, 0, 0
1486724867.6318607, 182, 204, -201, -231, -39, -11, -6, -10, 0, 0
1486724867.6318789, 176, 195, -213, -208, -22, -15, -12, -9, 0, 0
1486724867.631897, 180, 192, -211, -185, -8, -22, -19, -16, 0, 0
1486724867.6319153, 182, 194, -194, -189, -19, -15, -12, -3, 0, 0
1486724867.6319335, 181, 194, -190, -214, -31, -8, -12, -9, 0, 0
1486724867.6319563, 171, 196, -202, -220, 15068, -23824, -19456, 10496, 0, 0
1486724867.6319766, 175, 182, -210, -175, -8, -5, -13, -1, 0, 0
1486724867.6319954, 178, 193, -197, -190, -23, -6, -4, -7, 0, 0
1486724867.6320136, 194, 202, -197, -213, -36, -6, -11, -9, 0, 0
1486724867.6323493, 178, 194, -213, -224, -32, -10, -3, -10, 0, 0
1486724867.6323857, 189, 192, -219, -198, -13, -17, -6, -7, 0, 0
1486724867.63241, 179, 187, -214, -178, 0, -11, -8, -9, 0, 0
1486724867.6324358, 191, 183, -208, -191, -17, -13, -12, -10, 0, 0
1486724867.6324594, 184, 184, -201, -217, -46, -14, -10, -5, 0, 0
1486724867.63248, 180, 188, -206, -216, -28, -16, -18, -9, 0, 0
1486724867.6325, 178, 184, -218, -194, -23, -15, -16, -6, 0, 0
1486724867.6325195, 182, 187, -212, -188, -8, -14, -18, -17, 0, 0
1486724867.632538, 183, 187, -206, -211, -34, -7, -17, -9, 0, 0
1486724867.6325562, 175, 191, -198, -219, -36, -3, -11, -16, 0, 0
1486724867.6325748, 180, 190, -200, -210, -28, -6, -18, -14, 0, 0
1486724867.632593, 188, 215, -206, -217, -36, -17, -15, -18, 0, 0
1486724867.632611, 210, 220, -219, -223, -38, -9, -10, -14, 0, 0
1486724867.6326299, 228, 229, -219, -251, -53, -5, -11, -12, 0, 0
1486724867.6326485, 239, 253, -222, -289, -78, -14, -10, -5, 0, 0
1486724867.6326666, 247, 277, -235, -295, -72, -19, -11, -9, 0, 0
1486724867.6326847, 261, 288, -238, -287, -61, -17, -15, -12, 0, 0
1486724867.6327033, 276, 310, -234, -303, -65, -2, -18, -17, 0, 0
1486724867.6327238, 295, 333, -224, -340, -97, -8, -10, -10, 0, 0
1486724867.6327446, 300, 346, -232, -367, -103, -6, -9, -6, 0, 0
1486724867.6327739, 306, 355, -247, -370, -106, -20, -15, -14, 0, 0
1486724867.6328228, 315, 366, -251, -350, -86, -10, -6, -9, 0, 0
1486724867.6328433, 325, 375, -242, -358, -95, -10, -15, -9, 0, 0
1486724867.6328645, 325, 374, -230, -385, -122, -2, -11, -10, 0, 0
1486724867.6332018, 327, 389, -226, -402, -132, -8, -14, -6, 0, 0
1486724867.6332388, 331, 385, -239, -388, -119, -13, -10, -10, 0, 0
1486724867.6332633, 336, 386, -240, -364, -106, -11, -18, -7, 0, 0
1486724867.633284, 345, 380, -231, -358, -106, -4, -11, -14, 0, 0
1486724867.6333044, 344, 379, -229, -382, -130, -9, -19, -9, 0, 0
1486724867.633323, 323, 370, -229, -385, -127, -6, -9, -11, 0, 0
1486724867.6333418, 306, 355, -247, -370, -106, -20, -15, -5, 0, 0
1486724867.6333601, 330, 376, -234, -339, -99, -14, -18, -16, 0, 0
1486724867.6333785, 344, 381, -226, -345, -103, -9, -18, -11, 0, 0
1486724867.6333966, 345, 374, -230, -385, -122, -2, -11, -10, 0, 0
1486724867.6334155, 345, 387, -229, -374, -123, -1, -4, -11, 0, 0
1486724867.6334338, 328, 379, -232, -350, -102, -4, -10, -18, 0, 0
1486724867.633452, 336, 365, -240, -364, -106, -11, -18, -7, 0, 0
1486724867.6334703, 345, 376, -229, -348, -105, -7, -11, -9, 0, 0
1486724867.6334887, 339, 382, -219, -368, -122, -6, -11, -12, 0, 0
1486724867.6335065, 335, 376, -233, -376, -127, -6, -9, -11, 0, 0
1486724867.6335247, 330, 371, -238, -349, -109, -15, -16, -19, 0, 0
1486724867.633543, 346, 368, -236, -337, -106, -14, -15, -7, 0, 0
1486724867.6335642, 351, 372, -231, -349, -103, -9, -18, -11, 0, 0
1486724867.6335847, 348, 374, -229, -369, -119, -11, -21, -10, 0, 0
1486724867.633605, 340, 376, -230, -367, -120, -10, -12, -10, 0, 0
1486724867.6336243, 345, 371, -235, -342, -98, -4, -10, -18, 0, 0
1486724867.6336422, 345, 366, -241, -339, -101, -9, -16, -10, 0, 0
1486724867.6339173, 342, 367, -227, -345, -110, -13, -16, -11, 0, 0
1486724867.6339734, 335, 363, -226, -370, -129, -14, -17, -12, 0, 0
1486724867.6340077, 329, 372, -221, -364, -123, -12, -16, -15, 0, 0
1486724867.6341558, 337, 371, -232, -347, -109, -7, -22, -16, 0, 0
1486724867.634224, 340, 361, -227, -332, -112, -15, -15, -7, 0, 0
1486724867.6342583, 342, 358, -215, -344, -121, -11, -14, -9, 0, 0
1486724867.634283, 334, 368, -215, -365, -127, -7, -20, -12, 0, 0
1486724867.634314, 337, 364, -222, -350, -113, -9, -22, -14, 0, 0
1486724867.634371, 335, 356, -234, -332, -103, -12, -20, -10, 0, 0
1486724867.6344094, 353, 357, -230, -320, -104, -18, -12, -12, 0, 0
1486724867.6344285, 350, 361, -213, -334, -115, -12, -19, -18, 0, 0
1486724867.6344466, 332, 356, -219, -350, -124, -10, -16, -18, 0, 0
1486724867.634465, 332, 356, -238, -344, -118, -13, -22, -13, 0, 0
1486724867.634483, 342, 357, -235, -316, -97, -15, -19, -16, 0, 0
1486724867.6345012, 336, 350, -229, -316, -99, -9, -9, -16, 0, 0
1486724867.6348557, 346, 352, -217, -333, -116, -13, -18, -15, 0, 0
1486724867.6348782, 332, 358, -209, -354, -125, -8, -9, -8, 0, 0
1486724867.634898, 329, 355, -226, -340, -111, -7, -14, -17, 0, 0
1486724867.6349168, 328, 344, -227, -316, -92, -13, -12, -8, 0, 0
1486724867.6349359, 319, 351, -209, -313, -83, -7, -11, -12, 0, 0
1486724867.6349578, 321, 356, -204, -338, -102, -8, -10, -14, 0, 0
1486724867.6349773, 312, 355, -203, -356, -110, -13, -13, -9, 0, 0
1486724867.634996, 312, 356, -210, -338, -100, -13, -22, -13, 0, 0
1486724867.6351883, 309, 353, -214, -311, -80, -11, -11, -10, 0, 0
1486724867.6352167, 314, 340, -212, -300, -82, -10, -8, -12, 0, 0
1486724867.635237, 306, 340, -205, -327, -107, -10, -18, -15, 0, 0
1486724867.635256, 305, 344, -205, -338, -104, -11, -12, -10, 0, 0
1486724867.6352775, 313, 345, -213, -317, -88, -13, -9, -6, 0, 0
1486724867.6352963, 309, 332, -212, -295, -82, -11, -12, -14, 0, 0
1486724867.635317, 307, 333, -205, -306, -100, -13, -20, -15, 0, 0
1486724867.6353364, 322, 339, -205, -330, -112, -10, -12, -12, 0, 0
1486724867.6353557, 311, 337, -217, -344, -102, -9, -15, -8, 0, 0
1486724867.635374, 291, 327, -222, -317, -86, -7, -12, -10, 0, 0
1486724867.6353924, 306, 328, -214, -295, -76, -6, -14, -19, 0, 0
1486724867.635411, 302, 332, -200, -300, -94, 1, -12, -11, 0, 0
1486724867.6354299, 308, 337, -191, -324, -114, -5, -10, -19, 0, 0
1486724867.6354477, 307, 348, -192, -326, -108, -9, -5, -16, 0, 0
1486724867.6354663, 308, 334, -212, -292, -85, -20, -9, -6, 0, 0
1486724867.6354845, 320, 330, -212, -280, -76, -15, -10, -8, 0, 0
1486724867.6355026, 319, 327, -204, -299, -99, -8, -15, -8, 0, 0
1486724867.6355207, 314, 332, -195, -331, -111, -16, -11, -8, 0, 0
1486724867.6355383, 301, 335, -201, -333, -119, -15, -9, -11, 0, 0
1486724867.6355567, 304, 331, -210, -308, -99, -16, -7, -15, 0, 0
1486724867.6355746, 299, 320, -202, -286, -88, -11, -5, -3, 0, 0
1486724867.6355925, 302, 332, -200, -300, -94, 1, -12, -11, 0, 0
1486724867.63561, 308, 333, -186, -322, -114, -12, -14, -8, 0, 0
1486724867.6363416, 298, 334, -192, -312, -104, -15, -15, -11, 0, 0
1486724867.6364126, 304, 328, -208, -292, -85, -20, -10, -11, 0, 0
1486724867.6364372, 304, 319, -201, -283, -83, -13, -15, -16, 0, 0
1486724867.636458, 297, 318, -186, -297, -89, -9, -16, -9, 0, 0
1486724867.6364777, 296, 316, -190, -314, -111, -16, -11, -8, 0, 0
1486724867.6365354, 290, 312, -204, -314, -100, -16, -20, -13, 0, 0
1486724867.6365561, 301, 313, -217, -285, -86, -15, -5, -7, 0, 0
1486724867.6365755, 308, 317, -208, -279, -80, -11, -5, -3, 0, 0
1486724867.6365948, 303, 315, -196, -304, -102, -8, -12, -11, 0, 0
1486724867.6366136, 298, 320, -195, -325, -106, -5, -15, -15, 0, 0
1486724867.6366858, 283, 314, -210, -329, -104, -11, -15, -11, 0, 0
1486724867.6367147, 289, 308, -215, -302, -91, -13, -13, -17, 0, 0
1486724867.6367462, 292, 302, -200, -274, -82, -10, -11, -5, 0, 0
1486724867.636877, 292, 301, -194, -289, -92, -12, -20, -15, 0, 0
1486724867.6369092, 270, 301, -186, -303, -95, -7, -11, -5, 0, 0
1486724867.6369321, 259, 292, -200, -288, -83, -10, -6, -13, 0, 0
1486724867.6369524, 273, 298, -203, -265, -59, -9, -13, -16, 0, 0
1486724867.6369717, 275, 293, -190, -270, -71, -9, -13, -13, 0, 0
1486724867.636991, 270, 294, -181, -287, -95, -16, -10, -8, 0, 0
1486724867.6370103, 271, 299, -178, -300, -97, -8, -11, -10, 0, 0
1486724867.6370294, 255, 287, -192, -281, -77, -9, -4, -14, 0, 0
1486724867.6370482, 267, 281, -197, -264, -70, -15, -15, -7, 0, 0
1486724867.637067, 274, 287, -192, -270, -66, -10, -11, -5, 0, 0
1486724867.6370852, 272, 293, -187, -291, -88, -9, -11, -16, 0, 0
1486724867.6374478, 271, 291, -195, -296, -91, -10, -16, -27, 0, 0
1486724867.6374843, 265, 285, -202, -282, -74, -19, -12, -13, 0, 0
1486724867.6375086, 259, 282, -197, -250, -57, -10, -16, -19, 0, 0
1486724867.6375296, 276, 280, -190, -257, -73, -5, -12, -18, 0, 0
1486724867.6375494, 279, 288, -182, -277, -82, -5, -16, -8, 0, 0
1486724867.637568, 268, 280, -190, -289, -89, -11, -12, -16, 0, 0
1486724867.6375866, 254, 273, -198, -270, -73, -8, -15, -14, 0, 0
1486724867.637605, 254, 272, -199, -263, -68, -13, -17, -7, 0, 0
1486724867.637623, 262, 278, -185, -268, -72, -11, -13, -14, 0, 0
1486724867.6376412, 268, 283, -178, -286, -91, -8, -9, -18, 0, 0
1486724867.6376595, 259, 276, -184, -285, -90, -10, -16, -27, 0, 0
1486724867.6376781, 252, 265, -196, -256, -59, -7, -15, -18, 0, 0
1486724867.637697, 276, 273, -196, -240, -60, -15, -14, -17, 0, 0
1486724867.6377208, 266, 271, -188, -250, -72, -13, -13, -18, 0, 0
1486724867.6377397, 257, 267, -184, -275, -82, -12, -13, -17, 0, 0
1486724867.637758, 250, 277, -187, -272, -78, -8, -12, -22, 0, 0
1486724867.6377761, 256, 271, -194, -256, -61, -10, -16, -20, 0, 0
1486724867.6377943, 263, 259, -200, -241, -70, -6, -16, -17, 0, 0
1486724867.6378193, 261, 258, -190, -255, -75, -11, -14, -16, 0, 0
1486724867.6378388, 261, 267, -187, -280, -89, -5, -14, -10, 0, 0
1486724867.637857, 246, 271, -184, -270, -77, -8, -11, -19, 0, 0
1486724867.6378753, 256, 262, -194, -252, -65, -18, -18, -22, 0, 0
1486724867.6378932, 252, 264, -188, -241, -62, -18, -14, -17, 0, 0
1486724867.638269, 257, 264, -175, -254, -71, -9, -11, -12, 0, 0
1486724867.6383052, 246, 269, -170, -275, -93, -13, -10, -15, 0, 0
1486724867.638329, 254, 275, -187, -273, -73, -9, -8, -8, 0, 0
1486724867.6383498, 240, 265, -188, -249, -62, -14, -10, -17, 0, 0
1486724867.6383693, 250, 261, -180, -247, -61, -13, -12, -13, 0, 0
1486724867.6383882, 239, 267, -158, -264, -84, -9, -14, -14, 0, 0
1486724867.638407, 228, 261, -167, -283, -82, -5, -11, -11, 0, 0
1486724867.6384256, 225, 259, -171, -272, -72, -10, -14, -23, 0, 0
1486724867.6384473, 224, 253, -176, -251, -56, -15, -14, -19, 0, 0
1486724867.6384668, 214, 246, -188, -241, -62, -18, -14, -16, 0, 0
1486724867.6384864, 196, 252, -116, -259, -81, -6, -13, -2, 0, 0
1486724867.638505, 191, 242, -124, -283, -85, -14, -15, -8, 0, 0
1486724867.6385233, 156, 263, -99, -270, -65, -9, -8, -8, 0, 0
1486724867.6385431, 130, 242, -128, -268, -51, -10, -9, -15, 0, 0
1486724867.6385617, 136, 265, -94, -277, -53, -5, -8, -9, 0, 0
1486724867.638606, 92, 508, -158, -264, -84, -9, -14, -14, 0, 0
1486724867.638625, 39, 247, -36, -318, -80, -16, -17, -19, 0, 0
1486724867.638644, -14, 232, -22, -313, -62, -20, -15, -9, 0, 0
1486724867.638662, -38, 230, 7, -295, -42, -15, -14, -19, 0, 0
1486724867.6386833, -85, 227, 42, -306, -45, -11, -11, -7, 0, 0
1486724867.6387024, -108, 235, 74, -334, -68, -11, -20, -11, 0, 0
1486724867.6387699, -136, 232, 82, -343, -57, -4, -17, -16, 0, 0
1486724867.638814, -155, 222, 87, -336, -54, -8, -14, -16, 0, 0
1486724867.6391058, -181, 210, 93, -317, -35, -9, -9, -11, 0, 0
1486724867.6391425, -178, 208, 105, -336, -53, -10, -4, -5, 0, 0
1486724867.639166, -180, 216, 102, -364, -71, -4, -8, -16, 0, 0
1486724867.6391869, -182, 211, 86, -368, -73, -12, -17, -22, 0, 0
1486724867.6392062, -180, 198, 64, -343, -65, -10, -21, -19, 0, 0
1486724867.639225, -154, 199, 60, -316, -46, -19, -12, -11, 0, 0
1486724867.6392515, -129, 198, 53, -317, -60, -7, -17, -6, 0, 0
1486724867.6392705, -110, 204, 52, -335, -70, -12, -20, -11, 0, 0
1486724867.6392891, -102, 201, 31, -330, -65, -14, -11, -13, 0, 0
1486724867.639307, -84, 199, 12, -314, -59, -21, -12, -12, 0, 0
1486724867.6393251, -48, 200, -9, -298, -42, -19, -9, -11, 0, 0
1486724867.6393435, -44, 192, -18, -301, -61, -5, -9, -9, 0, 0
1486724867.639362, -20, 205, -15, -315, -75, -13, -9, -13, 0, 0
1486724867.6393802, -14, 206, -32, -308, -70, -16, -15, -22, 0, 0
1486724867.6393983, 5, 205, -54, -279, -38, -12, -9, -16, 0, 0
1486724867.6394167, 20, 202, -61, -258, -52, -21, -12, -11, 0, 0
1486724867.639437, 41, 208, -64, -272, -61, -12, -8, -7, 0, 0
1486724867.6394572, 61, 211, -73, -290, -65, -7, -16, -18, 0, 0
1486724867.6394758, 61, 206, -87, -277, -59, -11, -17, -15, 0, 0
1486724867.6394937, 70, 209, -100, -252, -39, -20, -18, -14, 0, 0
1486724867.6395113, 85, 207, -99, -238, -39, -16, -10, -15, 0, 0
1486724867.6418495, 103, 210, -94, -248, -57, -16, -16, -12, 0, 0
1486724867.641886, 103, 217, -94, -269, -62, -13, -9, -13, 0, 0
1486724867.6419156, 110, 216, -113, -265, -52, -13, -16, -13, 0, 0
1486724867.6419368, 113, 205, -119, -236, -35, -11, -15, -10, 0, 0
1486724867.6419566, 132, 210, -118, -218, -26, -21, -12, -11, 0, 0
1486724867.641976, 123, 210, -111, -237, -53, -14, -13, -19, 0, 0
1486724867.641995, 132, 210, -120, -251, -50, -7, -13, -16, 0, 0
1486724867.6420135, 129, 213, -128, -239, -48, -17, -17, -15, 0, 0
1486724867.642032, 129, 207, -135, -218, -27, -14, -6, -15, 0, 0
1486724867.6420503, 142, 211, -130, -216, -31, -12, -9, -12, 0, 0
1486724867.6420684, 145, 211, -125, -241, -55, -14, -17, -17, 0, 0
1486724867.6420867, 151, 212, -127, -249, -47, -20, -20, -12, 0, 0
1486724867.6421046, 142, 209, -145, -236, -38, -17, -20, -18, 0, 0
1486724867.6421227, 145, 209, -149, -211, -19, -12, -16, -16, 0, 0
1486724867.642141, 156, 202, -142, -208, -27, -14, -17, -13, 0, 0
1486724867.6421595, 159, 211, -134, -237, -48, -9, -18, -14, 0, 0
1486724867.6421776, 155, 215, -132, -243, -58, -12, -13, -13, 0, 0
1486724867.6421957, 129, 213, -128, -239, -48, -17, -8, -11, 0, 0
1486724867.6422138, 153, 202, -149, -207, -24, -16, -9, -17, 0, 0
1486724867.6422358, 157, 201, -138, -208, -33, -11, -11, -12, 0, 0
1486724867.6422555, 159, 211, -125, -241, -55, -14, -17, -17, 0, 0
1486724867.642274, 152, 212, -136, -241, -54, -8, -10, -19, 0, 0
1486724867.642292, 153, 204, -151, -231, -34, -12, -15, -14, 0, 0
1486724867.6426432, 156, 199, -156, -210, -19, -12, -16, -16, 0, 0
1486724867.6426802, 167, 202, -146, -213, -28, -15, -18, -23, 0, 0
1486724867.642704, 163, 199, -144, -243, -54, -15, -21, -18, 0, 0
1486724867.6427639, 159, 207, -139, -244, -58, -12, -13, -13, 0, 0
1486724867.6427877, 151, 203, -145, -216, -38, -17, -15, -15, 0, 0
1486724867.6428168, 157, 193, -147, -192, -22, -13, -15, -18, 0, 0
1486724867.6428356, 163, 193, -132, -197, -31, -11, -11, -12, 0, 0
1486724867.6428545, 163, 202, -128, -225, -46, -6, -9, -11, 0, 0
1486724867.642873, 151, 205, -138, -238, -53, -8, -10, -16, 0, 0
1486724867.6428914, 149, 198, -147, -211, -30, -14, -12, -14, 0, 0
1486724867.6429102, 161, 190, -148, -195, -26, -10, -6, -10, 0, 0
1486724867.6429284, 150, 186, -137, -203, -35, -9, -16, -19, 0, 0
1486724867.6429467, 154, 192, -130, -220, -45, -9, -15, -18, 0, 0
1486724867.6429725, 146, 196, -139, -213, -38, -15, -11, -17, 0, 0
1486724867.6429944, 155, 188, -149, -192, -23, -12, -8, -15, 0, 0
1486724867.6430142, 156, 185, -141, -180, -34, -21, -17, -18, 0, 0
1486724867.643033, 151, 186, -133, -205, -42, -15, -12, -10, 0, 0
1486724867.6430519, 163, 193, -132, -231, -61, -12, -18, -17, 0, 0
1486724867.6430714, 160, 195, -145, -225, -47, -8, -10, -16, 0, 0
1486724867.643092, 166, 192, -157, -200, -34, -16, -16, -15, 0, 0
1486724867.643111, 169, 186, -155, -188, -33, -14, -6, -8, 0, 0
1486724867.643129, 178, 200, -140, -209, -45, -13, -16, -19, 0, 0
1486724867.643149, 167, 199, -141, -221, -51, -5, -12, -18, 0, 0
1486724867.6434834, 158, 189, -149, -211, -40, -9, -14, -18, 0, 0
1486724867.6435204, 160, 182, -152, -183, -31, -8, -10, -15, 0, 0
1486724867.6435447, 171, 170, -160, -182, -21, -15, -13, -14, 0, 0
1486724867.6435657, 169, 180, -150, -203, -47, -13, -19, -13, 0, 0
1486724867.643585, 167, 184, -138, -208, -54, -11, -12, -15, 0, 0
1486724867.643604, 158, 187, -144, -209, -47, -14, -11, -21, 0, 0
1486724867.6436224, 169, 193, -154, -195, -37, -13, -7, -15, 0, 0
1486724867.6436408, 169, 192, -154, -197, -35, -13, -17, -15, 0, 0
1486724867.643659, 177, 202, -140, -224, -53, -3, -9, -13, 0, 0
1486724867.6436775, 175, 203, -139, -240, -65, -11, -8, -11, 0, 0
1486724867.6436956, 165, 203, -144, -234, -50, -9, -14, -18, 0, 0
1486724867.6437137, 170, 200, -147, -200, -34, -15, -14, -19, 0, 0
1486724867.6437423, 177, 197, -142, -201, -42, -14, -19, -19, 0, 0
1486724867.6437607, 185, 203, -134, -227, -60, -11, -19, -13, 0, 0
1486724867.6437786, 161, 201, -138, -235, -63, -13, -6, -11, 0, 0
1486724867.6437967, 169, 197, -151, -226, -45, -8, -10, -14, 0, 0
1486724867.6438146, 168, 196, -152, -205, -41, -14, -17, -15, 0, 0
1486724867.6438327, 177, 195, -144, -209, -52, -15, -10, -13, 0, 0
1486724867.6438527, 171, 200, -136, -230, -68, -15, -23, -21, 0, 0
1486724867.6438715, 166, 198, -136, -239, -64, -18, -19, -13, 0, 0
1486724867.6438909, 175, 195, -149, -219, -52, -17, -8, -18, 0, 0
1486724867.6439114, 169, 191, -140, -190, -36, -11, -14, -18, 0, 0
1486724867.6439295, 183, 191, -139, -208, -50, -14, -19, -19, 0, 0
1486724867.6439493, 171, 192, -132, -229, -66, -11, -16, -16, 0, 0
1486724867.644282, 164, 189, -143, -235, -62, -20, -14, -14, 0, 0
1486724867.6443472, 163, 187, -153, -216, -48, -21, -14, -9, 0, 0
1486724867.644372, 165, 184, -143, -193, -33, -17, -16, -12, 0, 0
1486724867.6443934, 167, 189, -138, -197, -38, -12, -10, -14, 0, 0
1486724867.6444132, 159, 182, -138, -222, -61, -12, -13, -13, 0, 0
1486724867.6444318, 154, 188, -138, -226, -58, -14, -13, -12, 0, 0
1486724867.6444507, 160, 184, -153, -206, -43, -12, -8, -13, 0, 0
1486724867.6445284, 172, 178, -161, -189, -39, -18, -19, -16, 0, 0
1486724867.6445706, 170, 191, -139, -208, -50, -13, -13, -12, 0, 0
1486724867.6445994, 175, 186, -139, -220, -59, -9, -11, -12, 0, 0
1486724867.6446412, 164, 188, -151, -226, -63, -10, -9, -16, 0, 0
1486724867.6446657, 164, 181, -155, -216, -48, -21, -14, -9, 0, 0
1486724867.6447065, 161, 180, -154, -191, -43, -14, -10, -20, 0, 0
1486724867.644768, 163, 177, -145, -213, -52, -9, -13, -17, 0, 0
1486724867.64479, 167, 187, -141, -233, -61, -12, -13, -13, 0, 0
1486724867.644818, 161, 186, -145, -224, -59, -9, -10, -14, 0, 0
1486724867.6448457, 163, 179, -156, -199, -40, -18, -19, -14, 0, 0
1486724867.644864, 170, 177, -153, -188, -37, -11, -19, -16, 0, 0
1486724867.6448824, 168, 177, -139, -208, -50, -6, -9, -13, 0, 0
1486724867.6449006, 155, 179, -138, -227, -66, -16, -9, -14, 0, 0
1486724867.6449187, 155, 176, -148, -217, -38, -15, -9, -16, 0, 0
1486724867.644937, 147, 174, -150, -193, -32, -15, -13, -11, 0, 0
1486724867.644955, 160, 173, -147, -187, -36, -7, -6, -15, 0, 0
1486724867.6452723, 156, 173, -138, -209, -58, -13, -16, -6, 0, 0
1486724867.6453218, 82, 29, -84, -70, -20, -20, -10, -19, 0, 0
1486724867.645624, 64, 30, -90, -62, -10, -24, -4, -12, 0, 0
1486724867.6468413, 70, 30, -95, -41, 14, -26, -14, -11, 0, 0
1486724867.6528811, 66, 24, -93, -39, 12, -24, -18, -17, 0, 0
1486724867.653277, 56, 32, -84, -61, -2, -16, -13, -17, 0, 0
1486724867.6540148, 63, 39, -87, -78, -18, -18, -15, -12, 0, 0
1486724867.6677873, 55, 36, -99, -71, 4, -23, -22, -13, 0, 0
1486724867.6682222, 55, 31, -101, -45, 16, -27, -19, -8, 0, 0
1486724867.6689148, 57, 25, -93, -35, 23, -20, -9, -6, 0, 0
1486724867.6827722, 58, 29, -82, -55, 5, -19, -13, -13, 0, 0
1486724867.6831253, 44, 28, -82, -67, -1, -20, -14, -24, 0, 0
1486724867.6840441, 50, 29, -88, -58, 17, -26, -19, -12, 0, 0
1486724867.6904554, 39, 21, -90, -26, 28, -26, -13, -8, 0, 0
1486724867.6908658, 51, 20, -84, -25, 30, -15, -12, -9, 0, 0
1486724867.6914759, 49, 22, -79, -46, 14, -11, -14, -11, 0, 0
1486724867.705472, 43, 25, -81, -62, 14, -11, -4, -10, 0, 0
1486724867.7058687, 30, 25, -92, -47, 15, -16, -11, -9, 0, 0
1486724867.7063868, 36, 15, -99, -25, 36, -12, -6, -10, 0, 0
1486724867.720294, 45, 15, -90, -24, 20, -21, -11, -16, 0, 0
1486724867.7206905, 48, 15, -82, -44, 11, -15, -13, -17, 0, 0
1486724867.7212913, 39, 20, -87, -47, -241, -20, -14, -24, 0, 0
1486724867.7277179, 32, 19, -95, -33, 35, -9, -13, -15, 0, 0
1486724867.7280781, 42, 22, -95, -14, 42, -22, -14, -12, 0, 0
1486724867.7288618, 40, 20, -84, -16, 38, -20, -18, -9, 0, 0
1486724867.7426429, 39, 19, -75, -35, 23, -12, -20, -17, 0, 0
1486724867.74316, 34, 25, -87, -54, 10, -13, -14, -18, 0, 0
1486724867.7439241, 46, 20, -95, -35, 25, -19, -15, -19, 0, 0
1486724867.757869, 43, 15, -94, -16, 24, -21, -15, -9, 0, 0
1486724867.7582629, 48, 18, -85, -24, 24, -11, -15, -11, 0, 0
1486724867.7589056, 44, 21, -83, -45, 9, -8, -16, -8, 0, 0
1486724867.7652721, 38, 23, -90, -54, 8, -17, -13, -17, 0, 0
1486724867.7656524, 39, 23, -98, -36, 23, -15, -11, -9, 0, 0
1486724867.7664835, 43, 23, -100, -18, 37, -18, -14, -12, 0, 0
1486724867.7802691, 56, 22, -88, -30, 25, -13, -12, -10, 0, 0
1486724867.7806597, 39, 30, -82, -60, 9, -16, -15, -10, 0, 0
1486724867.7812977, 52, 33, -93, -66, 7, -14, -9, -255, 0, 0
1486724867.7952888, 41, 29, -97, -44, 17, -20, -15, -13, 0, 0
1486724867.7956772, 47, 22, -89, -28, 19, -17, -14, -12, 0, 0
1486724867.7965508, 44, 25, -81, -37, 6, -20, -14, -10, 0, 0
1486724867.8029327, 42, 27, -77, -58, -6, -21, -12, -7, 0, 0
1486724867.8033683, 26, 24, -81, -51, 16, -16, -8, -12, 0, 0
1486724867.8038895, 39, 26, -89, -29, 24, -15, -10, -14, 0, 0
1486724867.804484, 46, 19, -100, -18, 37, -18, -13, -10, 0, 0
1486724867.8178165, 39, 20, -72, -39, 15, -23, -13, -9, 0, 0
1486724867.8181798, 37, 29, -75, -63, 5, -20, -19, -14, 0, 0
1486724867.819054, 41, 28, -88, -55, 7, -14, -9, 1, 0, 0
1486724867.8327386, 34, 18, -95, -34, 22, -18, -11, -6, 0, 0
1486724867.8332002, 49, 20, -86, -21, 29, -8, -18, -15, 0, 0
1486724867.833963, 46, 18, -72, -35, 6, -20, -14, -10, 0, 0
1486724867.8417888, 23, 18, -70, -53, -2, -10, -14, -17, 0, 0
1486724867.8418646, 25, 17, -76, -42, 20, -10, -11, -16, 0, 0
1486724867.84189, 31, 8, -90, -9, 39, -15, -10, -14, 0, 0
1486724867.8552403, 30, 13, -79, -12, 35, -11, -11, -11, 0, 0
1486724867.8555956, 42, 20, -70, -34, 14, -14, -10, -8, 0, 0
1486724867.8564055, 40, 23, -76, -47, 6, -6, -10, -14, 0, 0
1486724867.870347, 38, 24, -88, -45, 12, -11, -11, -10, 0, 0
1486724867.8707404, 38, 17, -92, -13, 36, -9, -8, -14, 0, 0
1486724867.8714473, 49, 19, -84, -14, 34, -12, -7, -15, 0, 0
1486724867.877789, 46, 26, -67, -31, 11, -14, -16, -12, 0, 0
1486724867.8781767, 49, 21, -74, -39, 15, -14, -10, -12, 0, 0
1486724867.879095, 37, 16, -81, -23, 24, -16, -14, -11, 0, 0
1486724867.8927498, 28, 5, -84, -1, 43, -13, -9, -13, 0, 0
1486724867.893144, 34, 11, -73, -12, 40, -4, -16, -10, 0, 0
1486724867.894101, 35, 20, -64, -36, 15, 1, -10, -8, 0, 0
1486724867.9077284, 31, 20, -68, -48, 13, 0, -7, -10, 0, 0
1486724867.9081051, 35, 18, -79, -31, 20, -10, -12, -7, 0, 0
1486724867.9090445, 38, 19, -74, -5, 43, -14, -11, -13, 0, 0
1486724867.9153285, 32, 14, -65, -10, 30, -7, -16, -11, 0, 0
1486724867.9156826, 35, 13, -60, -31, 16, -15, -12, -8, 0, 0
1486724867.9165924, 33, 16, -67, -34, 14, -22, -10, -6, 0, 0
1486724867.93028, 27, 16, -77, -18, 22, -20, -9, -7, 0, 0
1486724867.9306755, 28, 13, -76, -2, 31, -19, -12, -9, 0, 0
1486724867.9314163, 33, 8, -68, -14, 26, -11, -15, -13, 0, 0
1486724867.9455514, 20, 15, -57, -44, 4, -12, -17, -13, 0, 0
1486724867.9457886, 21, 19, -63, -54, 7, -9, -18, -16, 0, 0
1486724867.9463494, 4, 16, -66, -32, 22, -22, -27, -15, 0, 0
1486724867.952881, 9, 10, -62, -10, 37, -9, -10, -10, 0, 0
1486724867.9532938, 2, 6, -43, -13, 32, -11, -11, -5, 0, 0
1486724867.9540884, -1, 14, -41, -44, 16, -15, -12, -8, 0, 0
1486724867.9678583, -10, 15, -46, -50, 25, -4, -12, -14, 0, 0
1486724867.9682322, -21, 9, -47, -28, 28, -11, -11, -9, 0, 0
1486724867.9690626, -35, 3, -8, 0, 37, -19, -12, -9, 0, 0
1486724867.9830146, -54, 0, -5, -32, 26, -9, -18, -12, 0, 0
1486724867.983432, -68, -1, -7, -69, 14, -9, -10, -10, 0, 0
1486724867.983876, -90, 5, 4, -71, 23, -12, -18, -16, 0, 0
1486724867.9903877, -119, 2, 12, -54, 38, -24, -19, -11, 0, 0
1486724867.9907758, -148, -1, 42, -62, 31, -12, -14, -16, 0, 0
1486724867.9913669, -172, -3, 69, -82, 24, -14, -16, -5, 0, 0
1486724868.0053365, -211, 4, 95, -111, 9, -11, -12, -9, 0, 0
1486724868.005762, -249, -5, 120, -103, 16, -12, -8, -10, 0, 0
1486724868.0066888, -286, -5, 137, -91, 42, -7, -5, -11, 0, 0
1486724868.02029, -304, -18, 144, -88, 47, -4, -9, -14, 0, 0
1486724868.0206597, -318, -15, 176, -113, 23, -8, -18, -14, 0, 0
1486724868.0214994, -351, -11, 190, -134, 13, -11, -13, -3, 0, 0
1486724868.0278296, -382, -19, 200, -129, 22, -9, -6, -11, 0, 0
1486724868.0282304, -385, -23, 203, -106, 34, -12, -10, -12, 0, 0
1486724868.0290625, -395, -26, 215, -110, 25, -15, -15, -14, 0, 0
1486724868.0299325, -172, -3, 69, -82, 24, -14, -16, -16, 0, 0
1486724868.042888, -401, -30, 217, -156, 6, -10, -15, -10, 0, 0
1486724868.043277, -393, -35, 204, -143, 9, -6, -14, -10, 0, 0
1486724868.0441868, -395, -42, 189, -91, 42, -7, -5, -11, 0, 0
1486724868.0578065, -375, -39, 188, -108, 25, -13, -18, -10, 0, 0
1486724868.0582209, -357, -36, 182, -129, -1, -10, -13, -9, 0, 0
1486724868.0591564, -347, -35, 171, -137, 13, -11, -13, -3, 0, 0
1486724868.0653634, -335, -35, 145, -117, -3, -18, -21, -16, 0, 0
1486724868.0657222, -314, -31, 131, -103, 20, -20, -18, -16, 0, 0
1486724868.0667002, -295, -34, 127, -95, 25, -15, -15, -14, 0, 0
1486724868.0804043, -273, -25, 129, -112, -4, -12, -12, -11, 0, 0
1486724868.0807927, -264, -25, 116, -114, 5, -12, -15, -19, 0, 0
1486724868.0817146, -252, -32, 90, -88, 25, -4, -14, -10, 0, 0
1486724868.0952764, -225, -35, 87, -60, 35, -16, -18, -14, 0, 0
1486724868.0956402, -202, -28, 83, -63, 22, -11, -10, -8, 0, 0
1486724868.0966144, -180, -22, 73, -80, 14, -8, -13, -9, 0, 0
1486724868.1029534, -190, -24, 60, -87, 12, -15, -19, -14, 0, 0
1486724868.103193, -185, -21, 40, -69, 22, -19, -9, -12, 0, 0
1486724868.1040804, -152, -28, 29, -44, 25, -12, -8, -8, 0, 0
1486724868.117855, -136, -21, 30, -54, 29, -9, -10, -20, 0, 0
1486724868.1182282, -139, -20, 32, -70, 9, -2, -10, -6, 0, 0
1486724868.119081, -132, -17, 24, -67, 21, -12, -15, -19, 0, 0
1486724868.1329162, -130, -20, 13, -38, 38, -15, -14, -23, 0, 0
1486724868.1333036, -110, -20, 8, -19, 49, -11, -7, -19, 0, 0
1486724868.1341436, -99, -20, 9, -27, 34, -11, -10, -8, 0, 0
1486724868.1402507, -93, -17, 6, -47, 19, -16, -22, -17, 0, 0
1486724868.1406589, -87, -14, -2, -46, 26, -18, -19, -16, 0, 0
1486724868.141498, -82, -14, -22, -22, 41, -11, -9, -12, 0, 0
1486724868.1554348, -54, -13, -23, -4, 47, -6, 0, -7, 0, 0
1486724868.1558785, -54, -14, -10, -11, 28, -12, -14, -4, 0, 0
1486724868.1566665, -53, -7, -6, -30, 22, -13, -18, -15, 0, 0
1486724868.1703525, -61, -8, -18, -25, 29, -14, -12, -11, 0, 0
1486724868.1707387, -50, -13, -28, 2, 46, -18, -16, -14, 0, 0
1486724868.1727598, -44, -14, -27, 7, 39, -18, -13, -9, 0, 0
1486724868.1797063, -39, -9, -19, -9, 36, -12, -18, -14, 0, 0
1486724868.1798055, -30, -3, -23, -32, 25, -10, -13, -4, 0, 0
1486724868.1798558, -38, -2, -34, -30, 19, -17, -10, -13, 0, 0
1486724868.19279, -25, -9, -48, -6, 38, -16, -4, -9, 0, 0
1486724868.1931965, -23, -3, -42, -6, 33, -8, -12, -16, 0, 0
1486724868.1939359, -5, -1, -37, -21, 28, -12, -14, -4, 0, 0
1486724868.2079012, -12, -1, -37, -36, 11, -12, -17, -16, 0, 0
1486724868.2082899, -19, -7, -49, -28, 21, -13, -9, -9, 0, 0
1486724868.2090783, -12, -11, -53, 0, 29, -18, -16, -14, 0, 0
1486724868.2153223, -6, -11, -45, 3, 32, -5, -17, -17, 0, 0
1486724868.2156901, -1, -4, -34, -22, 9, -12, -9, -5, 0, 0
1486724868.216435, -10, 2, -41, -44, 0, -12, -8, -11, 0, 0
1486724868.2303574, -5, 6, -52, -38, 24, -11, -15, -12, 0, 0
1486724868.2307446, -7, -2, -59, -4, 35, -12, -8, -13, 0, 0
1486724868.2315457, 4, -8, -52, 0, 35, -14, -13, -11, 0, 0
1486724868.2453349, 1, -8, -41, -17, 11, -15, -4, -6, 0, 0
1486724868.2457016, -13, 1, -38, -26, 10, -14, -10, -13, 0, 0
1486724868.2462723, -16, -4, -48, -9, 23, -16, -12, -6, 0, 0
1486724868.2472427, -6, -11, -53, 0, 29, -11, -14, -11, 0, 0
1486724868.2530124, -2, -10, -46, 24, 47, -13, -5, -15, 0, 0
1486724868.2534325, 0, -10, -38, -7, 24, -9, -12, -16, 0, 0
1486724868.2678328, -2, -10, -43, -18, 24, -9, 0, -2, 0, 0
1486724868.2681859, -6, -14, -60, -1, 39, -18, -11, -10, 0, 0
1486724868.268946, 0, -14, -56, 22, 58, -16, -10, -20, 0, 0
1486724868.2828908, 11, -13, -50, 24, 48, -18, -11, -15, 0, 0
1486724868.283277, -2, -16, -42, 4, 33, -5, -8, -17, 0, 0
1486724868.2837741, -13, -16, -45, -4, 33, -5, -3, -9, 0, 0
1486724868.2849042, -12, -4, -48, -9, 23, -16, -12, -6, 0, 0
1486724868.2905452, -6, -21, -61, 31, 66, -19, -15, -15, 0, 0
1486724868.2907932, -6, -23, -55, 25, 46, -16, -9, -12, 0, 0
1486724868.291554, -4, -13, -48, 6, 24, -9, -12, -16, 0, 0
1486724868.3053217, -5, -14, -54, 1, 28, -16, -13, -13, 0, 0
1486724868.3057086, -9, -21, -67, 24, 54, -13, -9, -11, 0, 0
1486724868.3065636, 0, -26, -67, 48, 58, -16, -10, -20, 0, 0
1486724868.3203197, 6, -21, -54, 34, 49, -8, -4, -13, 0, 0
1486724868.320705, -2, -12, -55, -1, 27, -17, -11, -3, 0, 0
1486724868.3215668, -5, -11, -59, -7, 21, -5, -3, -9, 0, 0
1486724868.3278608, -5, -22, -70, 15, 42, -21, -3, -13, 0, 0
1486724868.3281004, 5, -20, -66, 27, 57, -9, -12, -14, 0, 0
1486724868.3292048, 5, -16, -50, 13, 32, -16, -9, -12, 0, 0
1486724868.342866, 2, -14, -47, -11, 18, -15, -4, -12, 0, 0
1486724868.343741, 2, -10, -59, -12, 34, -14, -9, -8, 0, 0
1486724868.3441536, 1, -18, -63, 21, 50, -14, -9, -12, 0, 0
1486724868.3579373, 5, -19, -57, 34, 51, -15, -8, -15, 0, 0
1486724868.3583336, 9, -14, -47, 13, 33, -16, -20, -24, 0, 0
1486724868.35912, 9, -6, -47, -8, 27, -13, -8, -11, 0, 0
1486724868.3654385, -7, -11, -54, -1, 36, -8, -9, -13, 0, 0
1486724868.3659067, -1, -9, -60, 24, 54, -20, -11, -14, 0, 0
1486724868.3666203, 5, -12, -55, 28, 45, -16, -13, -19, 0, 0
1486724868.3804343, 10, -11, -47, -1, 22, -10, -11, -16, 0, 0
1486724868.3807619, 6, -16, -47, -15, 15, -11, -16, -17, 0, 0
1486724868.3815737, -7, -18, -53, -3, 28, -17, -8, -16, 0, 0
1486724868.3954463, 1, -21, -61, 24, 43, -13, -7, -10, 0, 0
1486724868.3958328, 11, -20, -55, 33, 39, -21, -4, -10, 0, 0
1486724868.3965695, 5, -19, -46, 8, 19, -16, -9, -11, 0, 0
1486724868.402839, 12, -6, -46, -19, 11, -12, -6, -15, 0, 0
1486724868.4032152, 8, -4, -62, -13, 24, -16, -8, -15, 0, 0
1486724868.4042034, 26, -1, -68, 4, 30, -12, -15, -19, 0, 0
1486724868.4177818, 30, -8, -62, 2, 32, -13, -16, -17, 0, 0
1486724868.4181507, 28, 6, -49, -31, -3, -10, -15, -15, 0, 0
1486724868.419019, 14, 9, -53, -36, 0, -23, -16, -17, 0, 0
1486724868.4326859, 19, 5, -62, -21, 15, -15, -4, -19, 0, 0
1486724868.4333968, 18, -8, -64, 11, 43, -17, -7, -18, 0, 0
1486724868.4340858, 16, -9, -52, 13, 41, -17, -8, -2, 0, 0
1486724868.4400015, 14, -9, -47, -9, 15, -12, -10, -13, 0, 0
1486724868.4408407, 12, -4, -52, -16, 21, -17, -16, -20, 0, 0
1486724868.4415848, 10, -8, -64, 2, 32, -17, -13, -21, 0, 0
1486724868.4556615, 21, -8, -70, 22, 48, -23, -23, -17, 0, 0
1486724868.4560387, 19, -9, -57, 11, 33, -10, -17, -20, 0, 0
1486724868.4566813, 31, -7, -53, -9, 16, -12, -15, -18, 0, 0
1486724868.4702766, 13, -2, -56, -19, 11, -13, -6, -3, 0, 0
1486724868.4706733, 16, -3, -66, -6, 24, -10, -5, -14, 0, 0
1486724868.4715824, 18, -13, -63, 12, 42, -13, -13, -12, 0, 0
1486724868.4777334, 22, -11, -55, 5, 24, -13, -10, -13, 0, 0
1486724868.4786954, 20, -7, -54, -19, 11, -8, -12, -15, 0, 0
1486724868.4817424, 17, -2, -64, -30, 11, -7, -11, -20, 0, 0
1486724868.4927814, 10, -14, -65, -4, 43, -4, -5, -16, 0, 0
1486724868.4931443, 18, -11, -64, 7, 35, -14, -12, -14, 0, 0
1486724868.4939635, 21, -9, -53, -6, 15, -15, -17, -8, 0, 0
1486724868.5078216, 20, -7, -55, -28, 6, -5, -13, -3, 0, 0
1486724868.508193, 14, -7, -63, -29, 8, -14, -15, -23, 0, 0
1486724868.5088184, 18, -8, -76, -11, 16, -15, -11, -8, 0, 0
1486724868.5096107, 18, -13, -63, 12, 42, -13, -13, -12, 0, 0
1486724868.5155213, 26, -4, -59, -10, 16, -13, -17, -12, 0, 0
1486724868.515893, 17, -3, -51, -31, -4, -13, -15, -14, 0, 0
1486724868.516853, 13, -1, -57, -31, 11, -7, -11, -16, 0, 0
1486724868.5303779, 17, -3, -58, -6, 22, -16, -15, -14, 0, 0
1486724868.5307388, 20, -13, -56, 13, 35, -16, -21, -12, 0, 0
1486724868.5317304, 13, -12, -48, -4, 12, -11, -17, -8, 0, 0
1486724868.545345, 7, -8, -44, -28, -2, -10, -21, -11, 0, 0
1486724868.5457, -4, -13, -57, -25, 9, -17, -17, -10, 0, 0
1486724868.5467114, 11, -19, -65, 0, 28, -21, -20, -13, 0, 0
1486724868.5528483, 7, -18, -54, 8, 21, -14, -20, -12, 0, 0
1486724868.5532365, 6, -12, -41, -11, 7, -9, -15, -14, 0, 0
1486724868.5542426, -7, -7, -36, -29, -1, -15, -21, -10, 0, 0
1486724868.567862, -10, -10, -50, -18, 6, -18, -18, -17, 0, 0
1486724868.5682502, -5, -13, -57, 3, 32, -18, -14, -5, 0, 0
1486724868.5691996, -1, -15, -56, 0, 24, -15, -13, -12, 0, 0
1486724868.5829663, 13, -12, -47, -18, 17, -10, -22, -16, 0, 0
1486724868.583423, 7, -13, -46, -32, 7, -7, -11, -10, 0, 0
1486724868.5841613, -5, -13, -61, -27, 19, -12, -19, -17, 0, 0
1486724868.5903082, -5, -15, -64, 3, 35, -15, -20, -14, 0, 0
1486724868.5907156, 0, -15, -53, 3, 35, -15, -16, -7, 0, 0
1486724868.591687, 0, -9, -45, -18, 0, -12, -16, -12, 0, 0
1486724868.6054385, -4, -13, -45, -32, 8, -8, -17, -10, 0, 0
1486724868.6057003, -15, -17, -53, -19, 15, -19, -15, -11, 0, 0
1486724868.6067724, -5, -19, -59, 3, 23, -17, -9, -5, 0, 0
1486724868.6205015, 2, -13, -46, 2, 18, -18, -15, -17, 0, 0
1486724868.6209095, -5, -12, -40, -17, 13, -14, -16, -12, 0, 0
1486724868.6214204, -3, -12, -43, -32, 10, -10, -14, -10, 0, 0
1486724868.6278815, -5, -12, -60, -23, 22, -12, -11, -19, 0, 0
1486724868.6282396, -3, -20, -64, -5, 29, -15, -8, -13, 0, 0
1486724868.6292083, 3, -17, -55, -5, 26, -15, -11, -10, 0, 0
1486724868.6429007, 0, -15, -47, -27, 10, -20, -16, -17, 0, 0
1486724868.643242, -6, -13, -48, -38, -3, -7, -10, -14, 0, 0
1486724868.6444094, -6, -12, -59, -15, 23, -15, -3, -5, 0, 0
1486724868.6577525, 0, -16, -60, 6, 32, -11, -14, -13, 0, 0
1486724868.658336, -1, -16, -48, -4, 13, -20, -16, -21, 0, 0
1486724868.6588488, -6, -8, -39, -26, 4, -14, -16, -12, 0, 0
1486724868.66535, -10, -10, -49, -32, 9, -7, -15, -11, 0, 0
1486724868.6657476, -5, -14, -61, -8, 23, -17, -18, -19, 0, 0
1486724868.6669607, -3, -20, -61, 9, 32, -19, -11, -13, 0, 0
1486724868.6803837, 13, -23, -57, -7, 23, -10, -16, -9, 0, 0
1486724868.6812022, 0, -18, -52, -28, -2, -16, -14, -16, 0, 0
1486724868.6822436, -3, -15, -61, -25, 6, -15, -17, -21, 0, 0
1486724868.6983318, -1, -22, -68, 8, 22, -13, -10, -17, 0, 0
1486724868.698622, 6, -30, -68, 26, 32, -8, -11, -18, 0, 0
1486724868.6986654, 7, -24, -51, 8, 12, -20, -16, -21, 0, 0
1486724868.703252, 10, -21, -50, -14, 9, -5, -10, -14, 0, 0
1486724868.7033632, -2, -22, -60, -11, 9, -14, -6, -11, 0, 0
1486724868.7039914, 2, -28, -71, 8, 31, -12, -15, -17, 0, 0
1486724868.7048116, -3, -20, -61, 9, 32, -19, -11, -13, 0, 0
1486724868.7178862, 4, -22, -54, 6, 15, -16, -17, -19, 0, 0
1486724868.7182753, 23, -15, -58, -13, 10, -17, -16, -10, 0, 0
1486724868.7189167, 7, -15, -61, -25, 6, -15, -17, -21, 0, 0
1486724868.7328637, 8, -21, -65, 14, 33, -9, -8, -22, 0, 0
1486724868.7332926, 14, -21, -60, 21, 19, -12, -16, -12, 0, 0
1486724868.7341826, 12, -19, -51, 8, 12, -9, -12, -12, 0, 0
1486724868.7402635, 8, -17, -52, -23, 7, -7, -9, -17, 0, 0
1486724868.7406683, 0, -16, -59, -9, 18, -18, -13, -22, 0, 0
1486724868.7414606, 5, -19, -65, 17, 34, -12, -15, -17, 0, 0
1486724868.755761, 16, -17, -60, 19, 42, 0, -14, -16, 0, 0
1486724868.7558377, 18, -11, -53, -8, 27, -3, -15, -17, 0, 0
1486724868.7565818, 12, -7, -58, -13, 10, -17, -16, -10, 0, 0
1486724868.7703717, -6, -10, -58, -9, 11, -12, -11, -15, 0, 0
1486724868.7707405, 6, -9, -59, 12, 28, -11, -5, -12, 0, 0
1486724868.77163, 12, -13, -51, 21, 19, -12, -16, -12, 0, 0
1486724868.7820458, 12, -10, -37, 0, 9, -8, -20, -21, 0, 0
1486724868.7821255, 4, -10, -41, -20, 2, -3, -8, -21, 0, 0
1486724868.7821524, 1, -11, -52, -9, 15, -18, -13, -22, 0, 0
1486724868.792765, 0, -14, -56, 13, 36, -11, -8, -15, 0, 0
1486724868.793476, 13, -11, -52, 11, 33, -3, -8, -6, 0, 0
1486724868.794234, 18, -10, -44, -6, 13, -4, -10, -17, 0, 0
1486724868.8078249, 16, -5, -46, -24, 3, 1, -11, -19, 0, 0
1486724868.8081648, 9, -11, -52, -4, 14, -6, -10, -14, 0, 0
1486724868.8091857, 1, -16, -49, 25, 44, -12, -13, -12, 0, 0
1486724868.8154638, 7, -14, -38, 26, 28, -8, -10, -13, 0, 0
1486724868.8158503, 2, -17, -31, 2, 19, -6, -12, -13, 0, 0
1486724868.8166451, -2, -13, -35, -8, 7, -9, -15, -13, 0, 0
1486724868.8303587, -9, -17, -48, 8, 26, -17, -18, -16, 0, 0
1486724868.8307261, 4, -26, -50, 33, 37, -18, -20, -11, 0, 0
1486724868.831776, 8, -20, -38, 23, 27, -10, -8, -6, 0, 0
1486724868.84533, 10, -15, -34, -5, 8, -3, -16, -15, 0, 0
1486724868.845865, 2, -14, -36, -10, 11, -13, -15, -15, 0, 0
1486724868.8466587, -2, -19, -46, 15, 34, -15, -8, -11, 0, 0
1486724868.8528578, 10, -19, -45, 37, 38, -14, -16, -19, 0, 0
1486724868.8532262, 7, -22, -35, 29, 20, -16, -10, -14, 0, 0
1486724868.8542378, 12, -22, -30, 3, 10, -8, -14, -13, 0, 0
1486724868.867888, 4, -17, -37, -2, 12, -11, -13, -17, 0, 0
1486724868.8682299, 6, -23, -45, 23, 21, -12, -6, -10, 0, 0
1486724868.8692608, 5, -23, -41, 39, 27, -18, -20, -11, 0, 0
1486724868.882841, 3, -19, -27, 23, 17, -19, -13, -9, 0, 0
1486724868.883147, 4, -15, -25, -1, -2, -20, -16, -11, 0, 0
1486724868.8842297, -2, -21, -39, 1, 12, -14, -15, -15, 0, 0
1486724868.8904233, 0, -21, -47, 24, 25, -15, -11, -15, 0, 0
1486724868.8908179, 7, -20, -43, 35, 30, -12, -11, -15, 0, 0
1486724868.8916488, 4, -28, -36, 23, 14, -9, -15, -14, 0, 0
1486724868.9053385, 12, -19, -31, 4, 12, -15, -19, -9, 0, 0
1486724868.9057395, 0, -15, -41, 7, 14, -25, -18, -15, 0, 0
1486724868.9067495, 13, -21, -49, 33, 34, -24, -14, -18, 0, 0
1486724868.9204035, 14, -25, -44, 42, 37, -14, -17, -15, 0, 0
1486724868.9208317, 9, -25, -31, 27, 25, -8, -14, -14, 0, 0
1486724868.9218206, 4, -22, -29, 8, 8, -14, -18, -10, 0, 0
1486724868.9278598, 0, -21, -38, 13, 21, -11, -9, -13, 0, 0
1486724868.9282265, 0, -28, -47, 41, 38, -18, -12, -14, 0, 0
1486724868.929041, 0, -26, -38, 34, 30, -8, -11, -15, 0, 0
1486724868.9467573, 13, -17, -35, 13, 18, -4, -3, -9, 0, 0
1486724868.9468343, -1, -18, -39, -4, 9, -6, -14, -13, 0, 0
1486724868.9468632, -6, -19, -47, 6, 22, -17, -9, -20, 0, 0
1486724868.957851, -1, -20, -52, 30, 35, -11, -10, -10, 0, 0
1486724868.958497, 3, -21, -45, 35, 31, -15, -16, -16, 0, 0
1486724868.9592814, -2, -19, -35, 7, 13, -8, -16, -10, 0, 0
1486724868.9596145, 4, -22, -29, 8, 8, -14, -18, -10, 0, 0
1486724868.9657853, -1, -19, -46, 10, 27, -12, -17, -14, 0, 0
1486724868.9659095, -4, -24, -50, 32, 32, -11, -13, -22, 0, 0
1486724868.9671772, 14, -23, -43, 34, 30, -8, -15, -9, 0, 0
1486724868.9804502, 10, -16, -35, 0, 7, -9, -11, -16, 0, 0
1486724868.9813225, 2, -14, -37, -19, 11, -9, -13, -21, 0, 0
1486724868.982763, 0, -18, -49, -3, 22, -17, -9, -20, 0, 0
1486724868.9954836, 0, -24, -52, 21, 35, -8, -9, -21, 0, 0
1486724868.9963715, 7, -19, -36, 21, 31, -7, -16, -18, 0, 0
1486724868.9975765, 4, -19, -33, 0, 16, -8, -16, -10, 0, 0
1486724869.0029404, 2, -17, -39, -11, 9, -8, -11, -13, 0, 0
1486724869.0039213, -7, -24, -49, 11, 21, -13, -11, -11, 0, 0
1486724869.0047355, 3, -25, -43, 31, 28, -11, -13, -22, 0, 0
1486724869.018034, 7, -27, -36, 20, 7, -12, -9, -8, 0, 0
1486724869.0185626, 6, -27, -36, -12, -6, -11, -7, -7, 0, 0
1486724869.021989, 4, -20, -42, -15, 4, -15, -13, -21, 0, 0
1486724869.0328248, -5, -24, -50, 3, 10, -14, -6, -10, 0, 0
1486724869.0338533, 11, -25, -49, 21, 25, -13, -11, -15, 0, 0
1486724869.0357006, 11, -21, -36, 15, 18, -18, -16, -18, 0, 0
1486724869.0403855, 10, -22, -35, -5, 6, -12, -12, -15, 0, 0
1486724869.0412712, -1, -25, -46, 1, 6, -12, -9, -15, 0, 0
1486724869.0420725, 9, -23, -51, 27, 31, -12, -11, -11, 0, 0
1486724869.0561755, 15, -27, -49, 42, 33, -18, -11, -12, 0, 0
1486724869.057243, 8, -26, -37, 31, 25, -13, -9, -9, 0, 0
1486724869.0573144, 13, -23, -35, 1, 15, -17, -17, -18, 0, 0
1486724869.0705013, 8, -25, -47, 0, 15, -16, -13, -11, 0, 0
1486724869.0713606, 3, -28, -55, 23, 31, -17, -14, -17, 0, 0
1486724869.0729358, 20, -30, -45, 45, 47, -13, -11, -15, 0, 0
1486724869.0779324, 5, -27, -32, 27, 28, -8, -9, -8, 0, 0
1486724869.0788927, 3, -21, -28, 3, 5, -10, -8, -15, 0, 0
1486724869.0804398, -1, -21, -40, 4, 14, -12, -9, -15, 0, 0
1486724869.0929585, 2, -27, -50, 34, 39, -18, -10, -24, 0, 0
1486724869.093832, 0, -25, -44, 36, 19, -16, -12, -15, 0, 0
1486724869.094503, 10, -17, -32, 16, 14, -9, -4, -9, 0, 0
1486724869.1079369, 2, -14, -40, -6, 7, -10, -10, -15, 0, 0
1486724869.1084414, 4, -24, -47, 7, 19, -20, -13, -16, 0, 0
1486724869.1109202, 1, -27, -51, 34, 31, -15, -11, -21, 0, 0
1486724869.1154146, 3, -23, -42, 35, 25, -16, -18, -23, 0, 0
1486724869.1163068, 4, -26, -32, 18, 14, -15, -18, -17, 0, 0
1486724869.1174114, -5, -19, -35, 1, 6, -17, -19, -15, 0, 0
1486724869.1304307, 4, -19, -40, 13, 19, -16, -10, -7, 0, 0
1486724869.1314383, -1, -19, -45, 35, 33, -13, -14, -12, 0, 0
1486724869.1322415, 17, -16, -42, 31, 34, -16, -12, -15, 0, 0
1486724869.1453865, 13, -12, -32, 4, 2, -10, -15, -17, 0, 0
1486724869.1463852, 4, -10, -35, -13, -1, -12, -15, -21, 0, 0
1486724869.147871, -12, -10, -38, -12, 14, -20, -13, -16, 0, 0
1486724869.1542163, -21, -12, -33, 8, 20, -11, -9, -16, 0, 0
1486724869.1542878, -2, -29, -23, 36, 34, -6, -12, -19, 0, 0
1486724869.1543128, -26, -43, -11, 31, 25, -11, -12, -20, 0, 0
1486724869.1679351, -58, -55, -8, 25, 37, -12, -9, -13, 0, 0
1486724869.1687984, -75, -69, -6, 56, 59, -7, -9, -12, 0, 0
1486724869.1693175, -82, -81, -2, 91, 85, -12, -14, -7, 0, 0
1486724869.1707518, 161, -16, -42, 31, 34, -13, -15, -15, 0, 0
1486724869.1831038, -136, -116, 28, 95, 86, -1, -9, -14, 0, 0
1486724869.1834934, -150, -123, 28, 103, 88, -12, -6, -7, 0, 0
1486724869.1903622, -168, -149, 22, 145, 122, -21, -8, -14, 0, 0
1486724869.1907852, -173, -164, 22, 175, 136, -8, -3, -8, 0, 0
1486724869.1986146, -179, -174, 39, 179, 124, -11, -12, -12, 0, 0
1486724869.205469, -183, -184, 48, 169, 125, -7, -12, -9, 0, 0
1486724869.2062776, -193, -184, 44, 165, 122, -7, -3, -16, 0, 0
1486724869.206776, -188, -192, 24, 183, 134, -14, -8, -15, 0, 0
1486724869.2096143, -182, -81, -2, 91, 85, -12, -14, -7, 0, 0
1486724869.2204244, -167, -197, 23, 183, 120, -9, -6, -13, 0, 0
1486724869.221322, -164, -190, 23, 162, 107, -13, -14, -13, 0, 0
1486724869.221645, -161, -190, 28, 103, 88, -12, -6, -7, 0, 0
1486724869.2281284, -156, -193, 0, 184, 126, -18, -10, -16, 0, 0
1486724869.228719, -151, -194, 5, 194, 124, -9, -6, -13, 0, 0
1486724869.235824, -147, -189, 11, 176, 124, -11, -12, -12, 0, 0
1486724869.2480798, -149, -183, 15, 153, 94, -11, -4, -9, 0, 0
1486724869.2481503, -152, -183, -3, 158, 111, -15, -13, -8, 0, 0
1486724869.248175, -152, -189, -16, 181, 134, -14, -8, -15, 0, 0
1486724869.2581682, -148, -193, -10, 186, 124, -15, -13, -18, 0, 0
1486724869.2584548, -139, -185, -1, 169, 106, -13, -10, -7, 0, 0
1486724869.2629535, -137, -177, -3, 150, 88, -13, -14, -13, 0, 0
1486724869.265421, -150, -182, -19, 147, 90, -14, -6, -6, 0, 0
1486724869.266385, -147, -186, -21, 175, 119, -19, -16, -8, 0, 0
1486724869.2670734, -131, -189, -18, 183, 116, -9, -6, -13, 0, 0
1486724869.280562, -130, -183, -10, 166, 107, -8, -9, -10, 0, 0
1486724869.2814138, -131, -176, -12, 140, 89, -10, -10, -10, 0, 0
1486724869.2823215, -132, -174, -22, 148, 100, -15, -14, -14, 0, 0
1486724869.3008206, -136, -185, -28, 177, 122, -13, -7, -12, 0, 0
1486724869.3009117, -138, -186, -22, 183, 120, -8, -18, -12, 0, 0
1486724869.3025548, -121, -180, -10, 157, 110, -7, -12, -11, 0, 0
1486724869.3028712, -135, -179, -15, 136, 90, -8, -10, -13, 0, 0
1486724869.3046913, -133, -177, -22, 150, 97, -20, -14, -16, 0, 0
1486724869.3051977, -120, -182, -30, 176, 108, -20, -7, -11, 0, 0
1486724869.3179038, -119, -185, -23, 179, 116, -10, -9, -13, 0, 0
1486724869.3188987, -119, -180, -7, 155, 93, -7, -11, -5, 0, 0
1486724869.319267, -121, -174, -12, 138, 83, -15, -10, -13, 0, 0
1486724869.332925, -123, -178, -22, 149, 90, -19, -18, -21, 0, 0
1486724869.3338954, -122, -184, -26, 169, 109, -11, -11, -15, 0, 0
1486724869.3352337, -109, -186, -18, 172, 102, -14, -17, -15, 0, 0
1486724869.340458, -109, -179, -14, 144, 86, -8, -12, -16, 0, 0
1486724869.3411396, -116, -175, -16, 132, 73, -19, -23, -18, 0, 0
1486724869.3418102, -115, -177, -27, 152, 93, -14, -8, -15, 0, 0
1486724869.3555512, -107, -182, -29, 179, 107, -13, -8, -9, 0, 0
1486724869.3559783, -97, -174, -20, 170, 101, -12, -11, -17, 0, 0
1486724869.356411, -102, -172, -15, 149, 92, -7, -11, -5, 0, 0
1486724869.3704624, -110, -170, -16, 134, 82, -9, -12, -18, 0, 0
1486724869.3708541, -107, -171, -26, 152, 91, -12, -18, -17, 0, 0
1486724869.371456, -104, -180, -28, 175, 116, -10, -11, -15, 0, 0
1486724869.3779113, -108, -182, -17, 167, 97, -11, -4, -14, 0, 0
1486724869.3782532, -103, -174, -13, 146, 84, -7, -9, -11, 0, 0
1486724869.3790588, -106, -169, -19, 135, 73, -16, -10, -16, 0, 0
1486724869.3929453, -106, -174, -32, 153, 102, -15, -12, -9, 0, 0
1486724869.393332, -112, -179, -28, 171, 104, -10, -14, -14, 0, 0
1486724869.394054, -106, -175, -14, 161, 90, -9, -11, -15, 0, 0
1486724869.4079864, -110, -168, -6, 140, 79, -6, -9, -14, 0, 0
1486724869.4083767, -116, -166, -13, 138, 79, -10, -6, -14, 0, 0
1486724869.4089715, -117, -171, -27, 158, 94, -15, -13, -5, 0, 0
1486724869.4154637, -107, -174, -23, 171, 94, -19, -10, -12, 0, 0
1486724869.4158788, -112, -174, -13, 156, 83, -15, -15, -7, 0, 0
1486724869.4163513, -112, -170, -4, 143, 81, -11, -11, -12, 0, 0
1486724869.4173067, -110, -169, -19, 135, 73, -16, -10, -16, 0, 0
1486724869.4304683, -112, -178, -26, 168, 97, -14, -1, -9, 0, 0
1486724869.4308596, -106, -171, -19, 172, 110, -5, -8, -11, 0, 0
1486724869.431472, -112, -169, -14, 161, 90, -9, -11, -15, 0, 0
1486724869.4454656, -101, -166, -13, 135, 78, -9, -11, -18, 0, 0
1486724869.445823, -102, -167, -26, 143, 85, -7, -13, -9, 0, 0
1486724869.4465268, -106, -172, -32, 165, 94, -15, -13, -5, 0, 0
1486724869.4527245, -106, -171, -24, 170, 94, -21, -14, -11, 0, 0
1486724869.4531937, -97, -167, -13, 153, 78, -17, -10, -11, 0, 0
1486724869.4539385, -102, -163, -13, 136, 76, -11, -11, -12, 0, 0
1486724869.4679859, -109, -166, -24, 141, 82, -18, -6, -12, 0, 0
1486724869.468332, -101, -167, -30, 165, 106, -21, -17, -21, 0, 0
1486724869.469012, -89, -168, -30, 172, 110, -5, -8, -11, 0, 0
1486724869.4831927, -90, -164, -13, 144, 76, -16, -10, -19, 0, 0
1486724869.483669, -95, -152, -13, 127, 69, -7, -9, -13, 0, 0
1486724869.483985, -103, -163, -25, 145, 85, -7, -13, -9, 0, 0
1486724869.4905074, -100, -164, -31, 173, 95, -17, -12, -12, 0, 0
1486724869.4907374, -93, -166, -23, 170, 98, -12, -10, -11, 0, 0
1486724869.4915664, -83, -166, -16, 145, 82, -6, -13, -8, 0, 0
1486724869.5054648, -93, -161, -18, 129, 75, -15, -14, -17, 0, 0
1486724869.5058546, -91, -161, -29, 139, 80, -19, -14, -13, 0, 0
1486724869.5064194, -91, -163, -32, 159, 102, -12, -9, -21, 0, 0
1486724869.520488, -85, -155, -18, 146, 81, -13, -6, -16, 0, 0
1486724869.5208771, -79, -149, -10, 123, 58, -7, -7, -12, 0, 0
1486724869.521495, -90, -161, -12, 131, 68, -19, -6, -3, 0, 0
1486724869.527962, -101, -169, -25, 159, 94, -11, -9, -10, 0, 0
1486724869.5283208, -101, -175, -27, 176, 104, -16, -20, -16, 0, 0
1486724869.5289454, -103, -176, -9, 174, 96, -13, -14, -10, 0, 0
1486724869.5427945, -115, -171, 2, 149, 85, -5, -9, -10, 0, 0
1486724869.543279, -113, -172, -8, 133, 73, -11, -12, -11, 0, 0
1486724869.5440164, -127, -180, -18, 155, 93, -19, -14, -13, 0, 0
1486724869.5579813, -115, -189, -23, 175, 106, -14, -11, -16, 0, 0
1486724869.5583708, -115, -186, -14, 169, 93, -7, -9, -14, 0, 0
1486724869.5589533, -116, -182, -10, 151, 86, -9, -14, -12, 0, 0
1486724869.5654564, -132, -185, -14, 143, 83, -7, -12, -16, 0, 0
1486724869.5658493, -128, -186, -24, 161, 105, -14, -12, -13, 0, 0
1486724869.5664904, -125, -185, -26, 176, 103, -12, -9, -11, 0, 0
1486724869.5804691, -113, -189, -16, 166, 104, -8, -9, -10, 0, 0
1486724869.5808554, -114, -176, -17, 138, 81, -12, -11, -10, 0, 0
1486724869.5814648, -130, -182, -29, 138, 91, -7, -9, -12, 0, 0
1486724869.5954776, -122, -183, -39, 156, 101, -19, -11, -18, 0, 0
1486724869.5958853, -112, -184, -33, 171, 102, -22, -11, -15, 0, 0
1486724869.5964625, -106, -178, -20, 154, 83, -7, -9, -14, 0, 0
1486724869.6029406, -107, -172, -18, 130, 74, -18, -7, -15, 0, 0
1486724869.603337, -104, -175, -27, 139, 81, -17, -13, -20, 0, 0
1486724869.6040168, -107, -177, -32, 168, 101, -13, -12, -13, 0, 0
1486724869.6180303, -100, -184, -29, 177, -3480, -3073, 12031, 15066, 0, 0
1486724869.6184196, -99, -175, -17, 138, 77, -13, -15, -10, 0, 0
1486724869.6329813, -117, -181, -27, 148, 82, -16, -8, -14, 0, 0
1486724869.6333392, -108, -183, -40, 169, 104, -16, -15, -20, 0, 0
1486724869.6339574, -104, -182, -35, 174, 84, -19, -11, -18, 0, 0
1486724869.6404111, -101, -180, -24, 146, 84, -2, -10, -19, 0, 0
1486724869.6408339, -104, -172, -25, 130, 71, -5, -8, -13, 0, 0
1486724869.6412783, -114, -177, -32, 142, 94, -6, -5, -13, 0, 0
1486724869.6424851, -104, -175, -27, 139, 81, -17, -13, -20, 0, 0
1486724869.6554549, -101, -182, -32, 166, 101, -15, -15, -18, 0, 0
1486724869.6558125, -93, -174, -23, 143, 91, -9, -6, -4, 0, 0
1486724869.6565452, -112, -175, -17, 138, 77, -13, -15, -10, 0, 0
1486724869.6703873, -117, -169, -32, 139, 91, -8, -8, -16, 0, 0
1486724869.6708019, -117, -174, -32, 168, 99, -14, -17, -15, 0, 0
1486724869.6717362, -106, -182, -35, 174, 84, -16, -14, -11, 0, 0
1486724869.6779022, -113, -174, -15, 143, 81, -14, -14, -6, 0, 0
1486724869.678291, -116, -172, -17, 128, 77, -7, -10, -10, 0, 0
1486724869.679038, -118, -174, -32, 142, 94, -6, -5, -13, 0, 0
1486724869.6929018, -115, -180, -31, 169, 103, -19, -13, -18, 0, 0
1486724869.693304, -110, -180, -20, 167, 112, -13, -15, -9, 0, 0
1486724869.694284, -116, -174, -13, 145, 91, -9, -6, -4, 0, 0
1486724869.7079775, -114, -175, -18, 132, 83, -15, -8, -9, 0, 0
1486724869.7083936, -110, -174, -32, 147, 87, -17, -6, -7, 0, 0
1486724869.708797, -106, -180, -35, 165, 99, -14, -17, -15, 0, 0
1486724869.7153504, -105, -174, -22, 162, 86, -18, -8, -12, 0, 0
1486724869.715748, -107, -169, -12, 133, 80, -11, -11, -18, 0, 0
1486724869.7169616, -109, -166, -18, 124, 86, -7, -10, -10, 0, 0
1486724869.7303765, -110, -167, -30, 150, 99, -16, -8, -16, 0, 0
1486724869.7307777, -115, -176, -28, 174, 110, -18, -6, -17, 0, 0
1486724869.7317774, -115, -177, -18, 162, 95, -12, -10, -9, 0, 0
1486724869.7454684, -113, -170, -7, 142, 84, -15, -8, -6, 0, 0
1486724869.745857, -104, -167, -16, 146, 85, -19, -12, -18, 0, 0
1486724869.7467344, -102, -173, -30, 161, 104, -24, -7, -7, 0, 0
1486724869.7529476, -107, -178, -33, 164, 106, -16, -9, -21, 0, 0
1486724869.7533343, -107, -172, -23, 146, 88, -7, -7, -21, 0, 0
1486724869.7543056, -112, -166, -17, 120, 67, -5, -14, -18, 0, 0
1486724869.7678666, -122, -162, -17, 114, 69, -15, -17, -18, 0, 0
1486724869.7686121, -116, -164, -20, 139, 97, -13, -16, -16, 0, 0
1486724869.7692993, -120, -166, -12, 163, 100, -15, -12, -13, 0, 0
1486724869.7829444, -119, -166, 0, 147, 83, -10, -11, -8, 0, 0
1486724869.7833288, -116, -156, 0, 115, 64, -10, -7, -18, 0, 0
1486724869.784255, -120, -158, -8, 120, 83, -19, -12, -18, 0, 0
1486724869.7904444, -121, -159, -13, 143, 91, -14, -12, -22, 0, 0
1486724869.7908368, -113, -158, -13, 151, 94, -20, -19, -12, 0, 0
1486724869.791597, -109, -160, -3, 132, 79, -11, -7, -21, 0, 0
1486724869.8054545, -111, -155, -9, 107, 69, -15, -15, -10, 0, 0
1486724869.80586, -118, -155, -18, 107, 73, -14, -8, -15, 0, 0
1486724869.8064837, -110, -163, -31, 129, 89, -20, -13, -16, 0, 0
1486724869.820397, -102, -167, -25, 141, 92, -3, -6, -6, 0, 0
1486724869.8207955, -114, -163, -9, 126, 70, -13, -14, -7, 0, 0
1486724869.8217807, -112, -154, -6, 110, 65, -8, -15, -11, 0, 0
1486724869.8277655, -117, -156, -16, 117, 70, -16, -19, -24, 0, 0
1486724869.8284755, -113, -158, -16, 142, 85, -17, -11, -13, 0, 0
1486724869.8289685, -101, -159, -16, 146, 93, -8, -12, -16, 0, 0
1486724869.8429217, -95, -153, -7, 124, 64, -15, -15, -10, 0, 0
1486724869.8431673, -109, -151, -7, 108, 54, -13, -8, -4, 0, 0
1486724869.8442466, -113, -150, -17, 120, 75, -14, -8, -15, 0, 0
1486724869.8579044, -110, -154, -23, 143, 82, -19, -8, -17, 0, 0
1486724869.8582747, -98, -154, -15, 140, 74, -15, -10, -17, 0, 0
1486724869.8590508, -112, -153, -9, 116, 67, -10, -14, -7, 0, 0
1486724869.8654456, -113, -150, -14, 101, 65, -2, -8, -16, 0, 0
1486724869.865819, -116, -152, -22, 114, 80, -13, -13, -13, 0, 0
1486724869.8666923, -114, -155, -25, 143, 96, -13, -8, -17, 0, 0
1486724869.881176, -100, -153, -14, 146, 98, -9, -10, -16, 0, 0
1486724869.881612, -105, -151, -7, 122, 75, -13, -15, -12, 0, 0
1486724869.8819306, -113, -151, -13, 114, 76, -9, -12, -24, 0, 0
1486724869.895413, -117, -155, -21, 130, 86, -6, -1, -10, 0, 0
1486724869.8958185, -111, -159, -23, 150, 97, -11, -8, -20, 0, 0
1486724869.8967323, -103, -154, -13, 145, 88, -7, -11, -14, 0, 0
1486724869.9029279, -103, -149, -12, 118, 72, -7, -15, -22, 0, 0
1486724869.9033039, -107, -148, -17, 112, 76, -13, -12, -15, 0, 0
1486724869.904171, -109, -153, -28, 129, 86, -16, -20, -21, 0, 0
1486724869.9048464, -98, -154, -29, 143, 96, -13, -8, -17, 0, 0
1486724869.918003, -91, -153, -14, 139, 80, -17, -13, -13, 0, 0
1486724869.9183736, -99, -151, -10, 119, 68, -13, -16, -18, 0, 0
1486724869.9192917, -111, -146, -15, 117, 76, -9, -12, -24, 0, 0
1486724869.932957, -110, -159, -28, 141, 95, -14, -19, -16, 50, 50
1486724869.933865, -103, -158, -23, 154, 96, -18, -14, -15, 50, 50
1486724869.935956, -92, -158, -9, 143, 85, -7, -11, -14, 50, 50
1486724869.9411886, -106, -151, -2, 111, 59, -9, -14, -11, 50, 50
1486724869.9414737, -104, -151, -11, 121, 62, -12, -16, -19, 50, 50
1486724869.942244, -99, -160, -25, 154, 94, -14, -20, -21, 50, 50
1486724869.9557571, -107, -169, -11, 171, 100, -11, -17, -25, 50, 50
1486724869.9562047, -101, -169, 2, 154, 76, -13, -14, -22, 50, 50
1486724869.9585488, -104, -158, 6, 128, 67, -15, -16, -18, 50, 50
1486724869.9714062, -115, -164, 1, 131, 67, -10, -11, -16, 50, 50
1486724869.9723673, -120, -167, -8, 150, 86, -15, -14, -17, 50, 50
1486724869.974223, -115, -168, -8, 160, 93, -13, -21, -15, 50, 50
1486724869.9787197, -103, -158, 1, 138, 73, -16, -21, -18, 50, 50
1486724869.979426, -117, -158, 3, 121, 63, -11, -12, -13, 50, 50
1486724869.982047, -124, -160, -9, 125, 60, -17, -18, -11, 50, 50
1486724869.993964, -124, -165, -17, 146, 89, -19, -9, -14, 50, 50
1486724869.994304, -119, -163, -9, 153, 81, -18, -14, -8, 50, 50
1486724869.9946663, -111, -158, 4, 131, 69, -13, -14, -22, 50, 50
1486724870.0089035, -116, -157, 0, 114, 55, -8, -10, -9, 50, 50
1486724870.0106816, -123, -155, -6, 121, 71, -8, -10, -10, 50, 50
1486724870.0109842, -108, -154, -12, 143, 85, -15, -14, -17, 50, 50
1486724870.0156593, -104, -154, -10, 145, 80, -9, -14, -15, 50, 50
1486724870.0163898, -106, -150, 0, 122, 59, -12, -13, -9, 50, 50
1486724870.0186656, -108, -148, 0, 106, 47, -10, -12, -13, 50, 50
1486724870.0313504, -107, -153, -12, 120, 71, -14, -17, -12, 50, 50
1486724870.0352738, -112, -153, -15, 140, 85, -14, -20, -13, 50, 50
1486724870.0366666, -103, -151, -7, 141, 84, -15, -18, -14, 50, 50
1486724870.0463588, -109, -151, 2, 122, 66, -10, -11, -16, 50, 50
1486724870.0466409, -119, -145, -3, 113, 58, -14, -15, -17, 50, 50
1486724870.0468764, -117, -148, -12, 130, 73, -8, -10, -10, 50, 50
1486724870.0536814, -113, -158, -12, 150, 98, -14, -17, -16, 50, 50
1486724870.0573688, -99, -159, -3, 148, 88, -14, -18, -15, 50, 50
1486724870.0577352, -111, -156, 5, 126, 73, -7, -13, -9, 50, 50
1486724870.0689142, -116, -150, 6, 111, 67, -15, -10, -18, 50, 50
1486724870.0689893, -120, -148, -5, 126, 73, -18, -12, -14, 50, 50
1486724870.0719264, -102, -149, -5, 152, 86, -22, -9, -14, 50, 50
1486724870.0838792, -102, -151, 2, 151, 80, -17, -15, -19, 50, 50
1486724870.0881457, -103, -149, 6, 125, 63, -17, -10, -14, 50, 50
1486724870.0887878, -110, -147, 3, 114, 55, -18, -13, -9, 50, 50
1486724870.0907893, -120, -148, -7, 125, 78, -22, -12, -18, 50, 50
1486724870.0909317, -108, -149, -11, 149, 91, -12, -3, -5, 50, 50
1486724870.0917397, -96, -146, -3, 143, 78, -13, -7, -10, 50, 50
1486724870.0923896, -111, -156, 5, 126, 73, -7, -19, -13, 50, 50
1486724870.105467, -101, -134, -3, 103, 58, -6, -10, -17, 50, 50
1486724870.1058621, -104, -148, -13, 131, 87, -17, -12, -14, 50, 50
1486724870.120363, -107, -149, -11, 147, 90, -14, -10, -15, 50, 50
1486724870.1207676, -103, -148, -1, 128, 74, -14, -17, -12, 50, 50
1486724870.1215906, -108, -140, 6, 101, 46, -8, -16, -6, 50, 50
1486724870.127923, -113, -139, -1, 101, 53, -15, -18, -17, 50, 50
1486724870.1281953, -109, -137, -8, 119, 68, -13, -12, -15, 50, 50
1486724870.1291683, -104, -143, -7, 142, 78, -15, -13, -26, 50, 50
1486724870.1297665, -98, -139, -3, 143, 78, -13, -7, -10, 50, 50
1486724870.1429546, -101, -131, 12, 102, 46, -12, -10, -18, 50, 50
1486724870.1433518, -103, -135, 3, 103, 50, -14, -17, -12, 50, 50
1486724870.1443202, -110, -136, -6, 131, 87, -17, -14, -15, 50, 50
1486724870.1578887, -100, -137, 1, 136, 70, -19, -13, -16, 50, 50
1486724870.1586041, -100, -135, 9, 116, 56, -9, -14, -8, 50, 50
1486724870.159171, -103, -131, 7, 92, 46, -8, -16, -6, 50, 50
1486724870.1654205, -108, -127, -2, 100, 58, -8, -16, -19, 50, 50
1486724870.1658173, -116, -139, -4, 130, 71, -14, -11, -14, 50, 50
1486724870.1667478, -118, -142, 8, 134, 60, -15, -13, -26, 50, 50
1486724870.1804256, -109, -131, 18, 117, 63, -6, -12, -15, 50, 50
1486724870.1807568, -108, -127, 13, 94, 49, -5, -8, -11, 50, 50
1486724870.1815934, -119, -130, 4, 104, 61, -13, -17, -12, 50, 50
1486724870.1956859, -111, -131, -5, 131, 80, -20, -9, -15, 50, 50
1486724870.19636, -111, -135, -1, 134, 74, -12, -16, -14, 50, 50
1486724870.1967032, -103, -128, 13, 108, 61, -6, -14, -8, 50, 50
1486724870.2030063, -109, -126, 15, 92, 53, -8, -16, -19, 50, 50
1486724870.2033653, -126, -132, 4, 106, 72, -8, -11, -19, 50, 50
1486724870.2041862, -114, -134, -6, 128, 71, -11, -13, -14, 50, 50
1486724870.2179554, -98, -134, 2, 131, 72, -11, -19, -16, 50, 50
1486724870.2183137, -108, -132, 7, 111, 50, -9, -23, -9, 50, 50
1486724870.219328, -118, -129, 9, 98, 57, -16, -13, -12, 50, 50
1486724870.232987, -117, -127, -3, 101, 51, -15, -13, -23, 50, 50
1486724870.233354, -110, -131, 0, 122, 72, -14, -6, -13, 50, 50
1486724870.234307, -103, -132, 3, 119, 77, -6, -10, -8, 50, 50
1486724870.2404232, -102, -120, 11, 94, 50, -13, -20, -7, 50, 50
1486724870.2407997, -118, -121, 5, 83, 47, -4, -10, -13, 50, 50
1486724870.2418191, -105, -130, -8, 104, 67, -8, -11, -19, 50, 50
1486724870.2555068, -115, -135, -5, 125, 79, -14, -21, -18, 50, 50
1486724870.2558932, -108, -138, 3, 125, 65, -7, -18, -5, 50, 50
1486724870.2566338, -110, -130, 13, 100, 58, -9, -11, -13, 50, 50
1486724870.2705317, -118, -127, 11, 88, 43, -19, -19, -17, 50, 50
1486724870.2709246, -119, -131, -1, 107, 61, -18, -17, -23, 50, 50
1486724870.2717047, -119, -129, 4, 128, 82, -20, -11, -10, 50, 50
1486724870.2777557, -102, -128, 5, 120, 69, -5, -12, -17, 50, 50
1486724870.2783048, -111, -122, 11, 98, 52, 2, -8, -15, 50, 50
1486724870.2793002, -108, -121, 7, 97, 54, -5, -5, -11, 50, 50
1486724870.292967, -104, -127, -6, 112, 65, -10, -6, -7, 50, 50
1486724870.2932115, -104, -131, -4, 125, 68, -14, -15, -15, 50, 50
1486724870.294219, -102, -126, 7, 110, 56, -7, -18, -5, 50, 50
1486724870.3079844, -104, -123, 12, 89, 47, -10, -11, -9, 50, 50
1486724870.3083785, -107, -122, 3, 89, 47, -13, -5, -10, 50, 50
1486724870.3093271, -111, -128, -8, 112, 66, -19, -17, -23, 50, 50
1486724870.315396, -105, -128, -2, 129, 71, -20, -19, -16, 50, 50
1486724870.3157458, -106, -125, 12, 114, 62, -16, -22, -16, 50, 50
1486724870.3165815, -111, -117, 21, 82, 45, -15, -19, -14, 50, 50
1486724870.330374, -124, -118, 31, 99, 67, -13, -12, -12, 50, 50
1486724870.3307686, -145, -127, 41, 118, 60, -17, -12, -14, 50, 50
1486724870.3317566, -106, -103, 28, 94, 51, -17, -18, -17, 50, 50
1486724870.3453507, -131, -86, 54, 62, 37, -18, -10, -7, 50, 50
1486724870.3460603, -155, -74, 74, 32, 24, -17, -6, -6, 50, 50
1486724870.346816, -180, -55, 104, 25, 38, -13, -9, -7, 50, 50
1486724870.352954, -206, -46, 120, 37, 57, -14, -16, -12, 50, 50
1486724870.3533328, -212, -27, 153, 23, 46, -17, -13, -11, 50, 50
1486724870.3542562, -245, 4, 199, -14, 23, -18, -15, -9, 50, 50
1486724870.3545625, -250, -117, 21, 82, 45, -15, -19, -14, 50, 50
1486724870.3678694, -287, 44, 230, -67, 16, -18, -15, -8, 50, 50
1486724870.3686762, -285, 62, 238, -53, 34, -15, -20, -12, 50, 50
1486724870.3693666, -287, 79, 28, 94, 51, -17, -18, -17, 50, 50
1486724870.383031, -280, 105, 278, -99, -6, -14, -11, -19, 50, 50
1486724870.3834207, -285, 117, 284, -131, -23, -14, -16, -9, 50, 50
1486724870.3843021, -286, 127, 275, 131, 38, -13, -9, -7, 50, 50
1486724870.3904629, -287, 129, 279, -108, -6, -19, -9, -9, 50, 50
1486724870.390855, -270, 138, 289, -105, -7, -14, -14, -10, 50, 50
1486724870.3918014, -258, 146, 299, -114, -19, -18, -15, -9, 50, 50
1486724870.4054554, -256, 141, 289, -123, -26, -12, -11, -12, 50, 50
1486724870.4058409, -246, 143, 274, -110, -6, -14, -12, -5, 50, 50
1486724870.4068162, -232, 151, 270, -82, -8, -17, -20, -12, 50, 50
1486724870.420497, -225, 145, 267, -85, -4, -8, -11, 1, 50, 50
1486724870.420896, -214, 150, 277, -100, -28, -12, -9, -4, 50, 50
1486724870.4217277, -212, 149, 271, -116, -24, -7, -12, -9, 50, 50
1486724870.4278662, -216, 146, 258, -89, -13, -15, -11, -10, 50, 50
1486724870.4286153, -205, 134, 253, -58, 9, -18, -7, -9, 50, 50
1486724870.4292514, -189, 146, 261, -66, -15, -15, -13, -11, 50, 50
1486724870.4432592, -187, 144, 258, -92, -24, -6, -12, -4, 50, 50
1486724870.4436457, -193, 148, 245, -101, -24, -13, -16, -13, 50, 50
1486724870.4444976, -187, 147, 227, -83, -3, -13, -10, -11, 50, 50
1486724870.4581084, -176, 144, 223, -64, -6, -20, -8, -8, 50, 50
1486724870.4585285, -171, 138, 237, -66, -19, -21, -16, -17, 50, 50
1486724870.4589932, -165, 141, 241, -88, -18, -10, -9, -4, 50, 50
1486724870.4653816, -172, 144, 236, -88, -27, -10, -11, -16, 50, 50
1486724870.4657776, -174, 139, 224, -64, -13, -12, -6, -16, 50, 50
1486724870.4666305, -169, 140, 227, -49, -9, -14, -11, -9, 50, 50
1486724870.4805071, -162, 139, 231, -63, -14, -17, -14, -11, 50, 50
1486724870.4808512, -156, 142, 236, -76, -21, -6, -10, -5, 50, 50
1486724870.4818404, -158, 146, 226, -76, -22, -13, -12, -9, 50, 50
1486724870.4955034, -159, 134, 216, -50, 4, -20, -15, -8, 50, 50
1486724870.4958901, -161, 140, 222, -44, -1, -17, -15, -12, 50, 50
1486724870.4966288, -150, 136, 227, -69, -14, -12, -19, -10, 50, 50
1486724870.5029845, -157, 145, 232, -91, -31, -7, -8, -18, 50, 50
1486724870.5033932, -160, 145, 224, -90, -33, -14, -4, -7, 50, 50
1486724870.5043027, -158, 138, 216, -62, -12, -7, -8, -10, 50, 50
1486724870.5180364, -146, 130, 222, -45, -6, -14, -11, -12, 50, 50
1486724870.5184724, -146, 137, 228, -63, -27, -14, -11, -9, 50, 50
1486724870.5193064, -159, 144, 225, -89, -36, -6, -10, -5, 50, 50
1486724870.5329356, -158, 141, 216, -82, -27, -16, -6, -15, 50, 50
1486724870.5333292, -147, 135, 210, -55, -15, -13, -3, -18, 50, 50
1486724870.5340571, -137, 137, 219, -48, -16, -10, -7, -12, 50, 50
1486724870.5404196, -143, 139, 228, -69, -33, -20, -16, -7, 50, 50
1486724870.5408363, -142, 142, 230, -86, -31, -13, -15, -19, 50, 50
1486724870.5418358, -158, 141, 224, -83, -31, -14, -7, -16, 50, 50
1486724870.5553684, -146, 137, 220, -58, -5, -12, -13, -12, 50, 50
1486724870.5557897, -158, 139, 235, -46, -7, -11, -11, -12, 50, 50
1486724870.5568516, -162, 144, 248, -72, -30, -12, -11, -10, 50, 50
1486724870.5703826, -164, 147, 239, -94, -40, -13, -12, -12, 50, 50
1486724870.5707765, -167, 142, 232, -75, -10, -9, -13, -11, 50, 50
1486724870.5717318, -179, 135, 231, -55, -16, -21, -20, -13, 50, 50
1486724870.5724025, -175, 137, 219, -48, -16, -10, -7, -5, 50, 50
1486724870.578026, -173, 135, 249, -71, -30, -10, -10, -11, 50, 50
1486724870.5783865, -167, 137, 237, -87, -32, -14, -14, -16, 50, 50
1486724870.5929737, -171, 128, 223, -70, -14, -15, -21, -16, 50, 50
1486724870.5933692, -169, 124, 222, -44, 7, -13, -17, -14, 50, 50
1486724870.5942914, -149, 122, 230, -48, -6, -16, -20, -7, 50, 50
1486724870.607857, -155, 131, 235, -74, -32, -15, -19, -11, 50, 50
1486724870.6082058, -170, 129, 230, -84, -28, -12, -14, -15, 50, 50
1486724870.609017, -160, 134, 216, -69, -24, -17, -13, -7, 50, 50
1486724870.6099143, -179, 135, 231, -55, -16, -21, -20, -13, 50, 50
1486724870.6155467, -151, 134, 226, -78, -36, -12, -17, -7, 50, 50
1486724870.6159353, -156, 134, 221, -88, -28, -10, -10, -11, 50, 50
1486724870.630594, -151, 131, 207, -70, -19, -21, -16, -14, 50, 50
1486724870.6309488, -143, 125, 201, -49, -7, -19, -17, -11, 50, 50
1486724870.6317728, -139, 130, 222, -44, 7, -13, -17, -14, 50, 50
1486724870.645451, -142, 137, 217, -90, -38, -16, -20, -10, 50, 50
1486724870.6457553, -134, 144, 210, -95, -37, -20, -15, -17, 50, 50
1486724870.6468496, -144, 131, 189, -76, -28, -12, -14, -15, 50, 50
1486724870.6528914, -137, 128, 195, -54, -8, -17, -11, -6, 50, 50
1486724870.6536071, -138, 130, 203, -71, -18, -16, -17, -13, 50, 50
1486724870.6543503, -139, 137, 212, -90, -35, -12, -17, -7, 50, 50
1486724870.6678338, -149, 139, 207, -91, -38, -17, -16, -11, 50, 50
1486724870.6685553, -145, 132, 201, -69, -13, -18, -17, -12, 50, 50
1486724870.669323, -147, 126, 205, -50, -14, -18, -13, -11, 50, 50
1486724870.6878643, -142, 128, 216, -60, -26, -20, -15, -8, 50, 1390
1486724870.6883168, -141, 125, 217, -82, -43, -16, -19, -17, 50, 1390
1486724870.688361, -154, 124, 209, -75, -26, -17, -18, -17, 50, 1390
1486724870.6904738, -148, 123, 205, -52, -9, -13, -2, -8, 50, 1390
1486724870.6908946, -145, 115, 204, -44, -9, -13, -11, -23, 50, 1390
1486724870.69189, -145, 117, 217, -59, -22, -17, -9, -6, 50, 1390
1486724870.705785, -151, 120, 219, -76, -38, -16, -11, -8, 50, 1390
1486724870.706262, -155, 112, 205, -73, -32, -15, -12, -7, 50, 1390
1486724870.706998, -150, 113, 200, -46, -12, -18, -17, -12, 50, 1390
1486724870.7206628, -150, 111, 204, -42, 0, -16, -17, -19, 50, 1390
1486724870.721073, -150, 120, 215, -59, -24, -22, -17, -16, 50, 1390
1486724870.721909, -146, 123, 210, -79, -33, -16, -19, -17, 50, 1390
1486724870.735215, -163, 117, 199, -79, -30, -14, -12, -17, 50, 1390
1486724870.735833, -149, 121, 194, -54, -10, -17, -11, -14, 50, 1390
1486724870.7366686, -145, 111, 195, -44, -15, -16, -11, -23, 50, 1390
1486724870.742737, -129, 121, 209, -72, -36, -12, -10, -13, 50, 1390
1486724870.7434337, -151, 124, 208, -83, -39, -15, -13, -10, 50, 1390
1486724870.7442558, -146, 125, 200, -71, -25, -13, -3, -7, 50, 1390
1486724870.7579281, -152, 121, 195, -45, -10, -18, -15, -10, 50, 1390
1486724870.7583077, -137, 124, 203, -49, -15, -20, -13, -9, 50, 1390
1486724870.7593467, -139, 126, 208, -73, -39, -13, -9, -2, 50, 1390
1486724870.7654474, -144, 123, 202, -92, -30, -15, -16, -16, 50, 1390
1486724870.765834, -143, 119, 187, -74, -16, -13, -14, -13, 50, 1390
1486724870.766831, -147, 111, 188, -46, -6, -23, -19, -8, 50, 1390
1486724870.7804508, -139, 117, 202, -48, -14, -15, -14, -3, 50, 1390
1486724870.7808504, -144, 119, 210, -70, -35, -17, -17, -9, 50, 1390
1486724870.7818048, -143, 118, 203, -85, -51, -15, -13, -10, 50, 1390
1486724870.7954748, -142, 116, 187, -64, -33, -18, -8, -11, 50, 1390
1486724870.795844, -130, 112, 185, -44, -12, -13, -10, -13, 50, 1390
1486724870.796807, -121, 114, 203, -50, -28, -8, -13, -9, 50, 1390
1486724870.8029258, -122, 121, 210, -69, -42, -16, -14, -14, 50, 1390
1486724870.8032627, -135, 117, 202, -77, -44, -16, -9, -13, 50, 1390
1486724870.8043377, -140, 115, 187, -59, -17, -17, -14, -17, 50, 1390
1486724870.8255062, -131, 115, 189, -45, -14, -20, -14, -10, 50, 1390
1486724870.8259265, -135, 116, 205, -51, -27, -17, -22, -16, 50, 1390
1486724870.8268602, -132, 119, 212, -74, -36, -14, -14, -6, 50, 1390
1486724870.8275917, -143, 118, 203, -85, -51, -9, -6, -11, 50, 1390
1486724870.833019, -145, 116, 197, -53, -24, -22, -10, -21, 50, 1390
1486724870.8334174, -138, 109, 194, -34, -19, -19, -12, -12, 50, 1390
1486724870.8343346, -133, 114, 203, -50, -28, -8, -10, -8, 50, 1390
1486724870.840384, -145, 111, 208, -69, -38, -12, -7, 1, 50, 1390
1486724870.8407853, -157, 112, 204, -66, -29, -17, -8, -18, 50, 1390
1486724870.8418708, -147, 107, 187, -59, -17, -17, -14, -17, 50, 1390
1486724870.855438, -139, 104, 200, -31, -8, -12, -8, -12, 50, 1390
1486724870.8558037, -130, 110, 209, -45, -24, -12, -8, -11, 50, 1390
1486724870.8567243, -138, 112, 215, -65, -36, -14, -14, -6, 50, 1390
1486724870.8704846, -140, 110, 202, -62, -39, -16, -14, -16, 50, 1390
1486724870.870881, -143, 100, 194, -33, -13, -14, -14, -17, 50, 1390
1486724870.8716683, -139, 96, 196, -25, -7, -19, -12, -12, 50, 1390
1486724870.877975, -142, 100, 200, -51, -27, -10, -10, -13, 50, 1390
1486724870.8783727, -143, 105, 197, -75, -44, -13, -20, -16, 50, 1390
1486724870.8791058, -151, 101, 193, -68, -39, -17, -19, -18, 50, 1390
1486724870.8930533, -145, 92, 184, -44, -11, -16, -12, -18, 50, 1390
1486724870.8935351, -136, 96, 196, -29, -14, -11, -16, -15, 50, 1390
1486724870.8945415, -140, 96, 202, -47, -24, -12, -8, -11, 50, 1390
1486724870.9079943, -143, 96, 202, -59, -30, -12, -9, -14, 50, 1390
1486724870.9083393, -157, 89, 193, -51, -28, -15, -9, -10, 50, 1390
1486724870.9094162, -128, 106, 188, -45, -20, -14, -14, -17, 50, 1390
1486724870.9155571, -120, 115, 176, -47, -16, -11, -20, -18, 50, 1390
1486724870.9159439, -103, 121, 161, -82, -41, -6, -9, -15, 50, 1390
1486724870.9168186, -86, 128, 140, -107, -51, -17, -20, -16, 50, 1390
1486724870.9304013, -66, 130, 112, -101, -45, -20, -16, -13, 50, 1390
1486724870.9308264, -41, 125, 86, -80, -34, -20, -14, -15, 50, 1390
1486724870.9318461, -21, 116, 76, -81, -36, -15, -7, -14, 50, 1390
1486724870.9455202, -15, 108, 59, -102, -53, -12, -13, -23, 50, 1390
1486724870.9458852, -16, 103, 33, -128, -51, -6, -9, -20, 50, 1390
1486724870.946634, -6, 95, 7, -116, -36, -15, -14, -17, 50, 1390
1486724870.9530194, -5, 79, -5, -89, -35, -20, -13, -10, 50, 1390
1486724870.9534183, 17, 62, -13, -84, -38, -15, -14, -17, 50, 1390
1486724870.9542947, 22, 70, -23, -124, -61, -15, -12, -19, 50, 1390
1486724870.9681065, 27, 68, -38, -141, -62, -9, -9, -12, 50, 1390
1486724870.9684725, 34, 71, -55, -120, -53, -11, -14, -13, 50, 1390
1486724870.969138, 36, 61, -64, -95, -39, -20, -14, -15, 50, 1390
1486724870.9829988, 38, 58, -53, -105, -45, -15, -21, -12, 50, 1390
1486724870.9834056, 38, 55, -45, -126, -70, -16, -19, -16, 50, 1390
1486724870.983997, 25, 52, -48, -130, -64, -12, -19, -20, 50, 1390
1486724870.9904559, 36, 57, -58, -112, -51, -16, -13, -12, 50, 1390
1486724870.990853, 37, 55, -59, -95, -44, -15, -9, -17, 50, 1390
1486724870.99184, 40, 54, -55, -107, -56, -18, -12, -15, 50, 1390
1486724871.0055475, 51, 62, -50, -135, -63, -11, -15, -13, 50, 1390
1486724871.005792, 48, 59, -60, -137, -75, -16, -19, -14, 50, 1390
1486724871.006696, 53, 58, -66, -108, -50, -11, -14, -13, 50, 1390
1486724871.0205019, 52, 54, -60, -87, -36, -23, -15, -11, 50, 1390
1486724871.020887, 52, 58, -50, -95, -56, -16, -15, -14, 50, 1390
1486724871.0217931, 59, 64, -43, -122, -77, -13, -19, -16, 50, 1390
1486724871.028381, 43, 60, -49, -115, -66, -20, -9, -18, 50, 1390
1486724871.0284474, 43, 56, -63, -94, -42, -15, -6, -17, 50, 1390
1486724871.0293367, 56, 55, -61, -84, -40, -15, -4, -20, 50, 1390
1486724871.0430856, 63, 60, -58, -99, -52, -6, -10, -20, 50, 1390
1486724871.0433202, 62, 65, -58, -125, -69, -17, -10, -18, 50, 1390
1486724871.0441468, 66, 67, -66, -121, -64, -19, -10, -16, 50, 1390
1486724871.058024, 59, 66, -70, -95, -49, -17, -14, -13, 50, 1390
1486724871.0584235, 65, 53, -65, -79, -48, -17, -15, -24, 50, 1390
1486724871.059412, 66, 58, -52, -95, -70, -20, -18, -10, 50, 1390
1486724871.0599332, 66, 64, -43, -122, -77, -13, -15, -18, 50, 1390
1486724871.0655603, 66, 62, -57, -109, -65, -18, -13, -21, 50, 1390
1486724871.0659287, 64, 53, -70, -87, -51, -23, -13, -19, 50, 1390
1486724871.0804908, 61, 54, -62, -78, -50, -15, -10, -15, 50, 1390
1486724871.0809002, 69, 58, -52, -103, -62, -10, -11, -21, 50, 1390
1486724871.0815222, 69, 65, -54, -122, -70, -15, -16, -16, 50, 1390
1486724871.0824602, 66, 67, -66, -121, -64, -19, -10, -16, 50, 1390
1486724871.0954766, 61, 56, -66, -89, -50, -11, -9, -15, 50, 1390
1486724871.0958629, 71, 61, -57, -80, -45, -11, -12, -13, 50, 1390
1486724871.0968323, 78, 66, -52, -101, -70, -20, -18, -10, 50, 1390
1486724871.103048, 64, 67, -53, -118, -65, -7, -10, -13, 50, 1390
1486724871.1034355, 61, 65, -57, -108, -62, -17, -7, -14, 50, 1390
1486724871.1043808, 64, 58, -65, -82, -45, -23, -13, -19, 50, 1390
1486724871.1180341, 72, 57, -57, -78, -45, -11, -10, -16, 50, 1390
1486724871.1184583, 76, 61, -50, -98, -51, -4, -12, -8, 50, 1390
1486724871.1193135, 66, 62, -54, -115, -68, -8, -9, -16, 50, 1390
1486724871.1329117, 66, 63, -66, -100, -56, -16, -16, -17, 50, 1390
1486724871.133277, 72, 58, -71, -80, -45, -16, -11, -17, 50, 1390
1486724871.1344113, 89, 56, -63, -83, -47, -12, -6, -17, 50, 1390
1486724871.1404345, 81, 62, -54, -99, -60, -4, -7, -18, 50, 1390
1486724871.140842, 76, 65, -60, -109, -66, -13, -10, -22, 50, 1390
1486724871.141646, 72, 62, -64, -90, -60, -9, -14, -9, 50, 1390
1486724871.1555576, 77, 55, -66, -62, -37, -13, -10, -17, 50, 1390
1486724871.1559603, 76, 52, -61, -69, -42, -7, -17, -13, 50, 1390
1486724871.1569147, 74, 62, -56, -96, -65, -4, -12, -8, 50, 1390
1486724871.1704962, 74, 61, -60, -99, -63, -11, -7, -18, 50, 1390
1486724871.1709223, 69, 57, -68, -81, -53, -19, -8, -25, 50, 1390
1486724871.1716802, 80, 50, -70, -62, -34, -16, -11, -17, 50, 1390
1486724871.1779647, 78, 53, -58, -73, -50, -7, -3, -9, 50, 1390
1486724871.178353, 73, 53, -54, -99, -66, -8, -11, -18, 50, 1390
1486724871.1794255, 70, 53, -60, -100, -67, -13, -10, -22, 50, 1390
1486724871.1930335, 70, 52, -71, -73, -39, -15, -10, -21, 50, 1390
1486724871.1932836, 82, 49, -65, -58, -41, -19, -17, -10, 50, 1390
1486724871.1942828, 74, 56, -53, -63, -49, -14, -9, -14, 50, 1390
1486724871.2080975, 82, 53, -56, -83, -60, -7, -8, -16, 50, 1390
1486724871.2084882, 72, 56, -63, -92, -66, -16, -8, -16, 50, 1390
1486724871.2092881, 77, 49, -71, -70, -39, -19, -8, -25, 50, 1390
1486724871.2156074, 79, 49, -73, -65, -53, -19, -11, -21, 50, 1390
1486724871.2159956, 92, 58, -64, -84, -63, -9, -11, -17, 50, 1390
1486724871.2169876, 86, 59, -63, -102, -74, -7, -11, -18, 50, 1390
1486724871.230527, 79, 61, -67, -97, -67, -14, -8, -10, 50, 1390
1486724871.2308621, 80, 53, -75, -75, -46, -14, -14, -7, 50, 1390
1486724871.2319074, 78, 44, -69, -58, -36, -14, -15, -13, 50, 1390
1486724871.2455137, 91, 50, -59, -69, -54, -8, -15, -18, 50, 1390
1486724871.2458713, 76, 51, -65, -93, -58, -10, -12, -13, 50, 1390
1486724871.2468624, 77, 49, -77, -87, -57, -16, -13, -13, 50, 1390
1486724871.2530072, 87, 43, -82, -66, -44, -15, -14, -14, 50, 1390
1486724871.2533648, 88, 43, -74, -56, -43, -14, -10, -19, 50, 1390
1486724871.2541234, 88, 46, -63, -84, -61, -9, -11, -17, 50, 1390
1486724871.2679293, 93, 55, -62, -97, -63, -7, -9, -10, 50, 1390
1486724871.2683015, 79, 47, -72, -85, -60, -16, -12, -15, 50, 1390
1486724871.269251, 88, 40, -76, -61, -33, -12, -14, -7, 50, 1390
1486724871.2829926, 85, 38, -67, -55, -43, -5, -11, -10, 50, 1390
1486724871.2833502, 86, 43, -59, -81, -51, -6, -6, -8, 50, 1390
1486724871.2843828, 79, 50, -66, -98, -59, -11, -15, -13, 50, 1390
1486724871.2906017, 80, 54, -76, -91, -53, -14, -11, -14, 50, 1390
1486724871.2919586, 80, 49, -79, -66, -37, -16, -15, -12, 50, 1390
1486724871.293863, 94, 42, -81, -68, -41, -6, -15, -15, 50, 1390
1486724871.2963302, 96, 46, -63, -84, -61, -12, -11, -18, 50, 1390
1486724871.3058116, 77, 50, -64, -99, -67, -7, -6, -5, 50, 1390
1486724871.3062768, 79, 47, -74, -84, -46, -9, -1, -6, 50, 1390
1486724871.3072014, 72, 48, -76, -61, -33, -12, -3, -12, 50, 1390
1486724871.3212967, 83, 45, -67, -57, -42, -12, -10, -12, 50, 1390
1486724871.3221087, 86, 52, -57, -76, -59, -16, -16, -17, 50, 1390
1486724871.3223853, 79, 50, -64, -98, -59, -11, -15, -6, 50, 1390
1486724871.328207, 73, 46, -71, -71, -44, -12, -12, -17, 50, 1390
1486724871.3298671, 79, 46, -71, -47, -29, -13, -13, -17, 50, 1390
1486724871.3306928, 86, 42, -64, -53, -47, -6, -15, -15, 50, 1390
1486724871.3451238, 85, 45, -56, -78, -59, -2, -12, -12, 50, 1390
1486724871.345196, 82, 52, -61, -88, -58, -12, -11, -9, 50, 1390
1486724871.345827, 70, 47, -69, -62, -44, -9, -1, -6, 50, 1390
1486724871.359931, 80, 43, -67, -47, -33, -19, -14, -12, 50, 1390
1486724871.361503, 92, 44, -60, -55, -42, -7, -17, -16, 50, 1390
1486724871.366126, 83, 47, -51, -82, -59, -10, -16, -17, 50, 1390
1486724871.36655, 71, 51, -61, -93, -67, -14, -16, -14, 50, 1390
1486724871.3668945, 73, 47, -67, -71, -45, -16, -15, -15, 50, 1390
1486724871.3681836, 77, 45, -68, -52, -47, -16, -13, -17, 50, 1390
1486724871.3814971, 89, 48, -58, -64, -58, -13, -3, 0, 50, 1390
1486724871.3820872, 86, 52, -55, -85, -68, -12, -15, -7, 50, 1390
1486724871.3823426, 73, 46, -59, -85, -61, -21, -15, -16, 50, 1390
1486724871.3965466, 84, 41, -70, -63, -37, -23, -10, -13, 50, 1390
1486724871.3978493, 80, 34, -65, -46, -37, -14, -14, -15, 50, 1390
1486724871.4009893, 81, 44, -55, -68, -53, -7, -17, -16, 50, 1390
1486724871.40405, 73, 48, -55, -87, -60, -8, -12, -16, 50, 1390
1486724871.4054058, 69, 46, -66, -79, -55, -14, -12, -16, 50, 1390
1486724871.4054794, 73, 34, -72, -49, -40, -16, -13, -15, 50, 1390
1486724871.4189837, 80, 32, -67, -46, -38, -19, -21, -12, 50, 1390
1486724871.4223118, 72, 34, -53, -57, -51, -9, -22, -1, 50, 1390
1486724871.4223835, 76, 44, -49, -77, -63, -14, -14, -7, 50, 1390
1486724871.4330575, 65, 40, -58, -78, -49, -11, -12, -15, 50, 1390
1486724871.434047, 71, 33, -70, -52, -36, -13, -6, -12, 50, 1390
1486724871.4347732, 87, 37, -67, -52, -35, -6, -9, -14, 50, 1390
1486724871.440543, 84, 39, -53, -72, -69, -13, -18, -15, 50, 1390
1486724871.441498, 79, 41, -50, -77, -61, -11, -12, -13, 50, 1390
1486724871.4428883, 68, 35, -61, -66, -56, -11, -12, -11, 50, 1390
1486724871.4555385, 80, 32, -67, -47, -37, -18, -16, -12, 50, 1390
1486724871.4558334, 83, 30, -63, -45, -43, -11, -20, -16, 50, 1390
1486724871.4585497, 85, 31, -53, -70, -50, -9, -22, -1, 50, 1390
1486724871.4705908, 65, 39, -53, -78, -54, -9, -14, -21, 50, 1390
1486724871.4715629, 69, 37, -65, -66, -49, -12, -15, -17, 50, 1390
1486724871.4721725, 77, 35, -72, -40, -28, -14, -6, -12, 50, 1390
1486724871.478101, 77, 29, -64, -34, -34, -13, -9, -10, 50, 1390
1486724871.478991, 85, 32, -56, -62, -51, -6, -10, -9, 50, 1390
1486724871.481941, 62, 35, -56, -79, -57, -5, -10, -13, 50, 1390
1486724871.492835, 67, 34, -67, -68, -51, -13, -11, -6, 50, 1390
1486724871.4935257, 75, 31, -69, -51, -38, -11, -6, -11, 50, 1390
1486724871.4943242, 81, 35, -62, -54, -47, -12, -12, -12, 50, 1390
1486724871.5084183, 74, 43, -53, -80, -71, -14, -10, -9, 1280, 720
1486724871.5096714, 65, 39, -56, -87, -67, -10, -9, -11, 1280, 720
1486724871.5097451, 71, 39, -70, -72, -48, -9, -10, -2, 1280, 720
1486724871.513943, 77, 35, -72, -40, -28, -14, -15, -9, 1280, 720
1486724871.5157902, 67, 33, -57, -55, -42, -10, -16, -17, 1280, 720
1486724871.5190494, 78, 41, -49, -75, -62, -13, -14, -14, 1280, 720
1486724871.5315123, 72, 39, -56, -81, -51, -15, -14, -12, 1280, 720
1486724871.5316012, 64, 34, -64, -50, -26, -12, -12, -10, 1280, 720
1486724871.5335455, 73, 33, -61, -30, -23, -14, -12, -13, 1280, 720
1486724871.5462086, 78, 31, -50, -35, -38, -11, -16, -12, 1280, 720
1486724871.5465145, 77, 34, -47, -65, -59, -5, -8, -16, 1280, 720
1486724871.5469205, 75, 39, -54, -75, -61, -7, -12, -11, 1280, 720
1486724871.5518537, 75, 39, -70, -72, -48, -9, -10, -2, 1280, 720
1486724871.554006, 79, 35, -65, -44, -37, -11, -8, -10, 1280, 720
1486724871.5563061, 82, 37, -47, -48, -56, -16, -16, -20, 1280, 720
1486724871.5567698, 82, 35, -41, -67, -62, -13, -14, -14, 1280, 720
1486724871.5689535, 73, 42, -49, -69, -58, -20, -16, -13, 1280, 720
1486724871.5694275, 78, 39, -56, -44, -41, -16, -9, -6, 1280, 720
1486724871.570804, 71, 37, -50, -29, -37, -14, -12, -13, 1280, 720
1486724871.5840313, 72, 40, -36, -44, -47, -6, -10, -13, 1280, 720
1486724871.5857632, 67, 43, -36, -70, -52, -7, -20, -11, 1280, 720
1486724871.5874176, 56, 38, -39, -63, -48, -13, -12, -11, 1280, 720
1486724871.5915391, 59, 31, -44, -34, -33, -15, -20, -12, 1280, 720
1486724871.5916123, 66, 29, -44, -25, -33, -18, -11, -11, 1280, 720
1486724871.5945115, 65, 24, -34, -41, -42, -12, -16, -20, 1280, 720
1486724871.6066499, 60, 26, -32, -56, -60, -18, -9, -8, 1280, 720
1486724871.6067204, 65, 27, -47, -49, -42, -13, -12, -7, 1280, 720
1486724871.6083753, 69, 22, -57, -25, -32, -15, -5, -14, 1280, 720
1486724871.6205812, 73, 22, -49, -23, -35, -23, -16, -17, 1280, 720
1486724871.6209335, 71, 24, -44, -52, -60, -12, -18, -15, 1280, 720
1486724871.6217957, 66, 27, -46, -65, -53, -5, -6, -10, 1280, 720
1486724871.6281996, 64, 29, -58, -58, -53, -11, -10, -13, 1280, 720
1486724871.6288533, 62, 23, -62, -34, -37, -16, -9, -11, 1280, 720
1486724871.6291542, 72, 22, -55, -27, -35, -14, -10, -10, 1280, 720
1486724871.6430953, 75, 30, -43, -39, -46, -11, -17, -9, 1280, 720
1486724871.6434097, 67, 28, -42, -55, -57, -11, -16, -11, 1280, 720
1486724871.6446812, 59, 24, -50, -42, -36, -13, -12, -7, 1280, 720
1486724871.6581304, 62, 15, -57, -16, -26, -16, -12, -7, 1280, 720
1486724871.6591358, 74, 21, -52, -23, -32, -10, -7, -17, 1280, 720
1486724871.66084, 77, 27, -43, -49, -58, -12, -18, -15, 1280, 720
1486724871.6663158, 64, 27, -44, -61, -51, -12, -13, -12, 1280, 720
1486724871.6671994, 75, 34, -57, -47, -48, -14, -14, -16, 1280, 720
1486724871.6672494, 72, 22, -56, -23, -28, -13, -9, -11, 1280, 720
1486724871.6806536, 78, 17, -50, -23, -27, -11, -7, -9, 1280, 720
1486724871.6812704, 69, 21, -38, -43, -50, -9, -15, -9, 1280, 720
1486724871.682631, 58, 27, -37, -61, -59, -16, -9, -11, 1280, 720
1486724871.6966324, 60, 21, -45, -41, -32, -14, -7, -11, 1280, 720
1486724871.697257, 60, 16, -52, -21, -35, -17, -15, -15, 1280, 720
1486724871.6973298, 68, 21, -41, -29, -41, -17, -19, -11, 1280, 720
1486724871.703168, 67, 24, -35, -51, -45, -15, -15, -7, 1280, 720
1486724871.7039604, 63, 27, -39, -54, -49, -9, -11, -6, 1280, 720
1486724871.7050512, 61, 18, -51, -39, -38, -12, -12, -14, 1280, 720
1486724871.718909, 78, 16, -47, -18, -18, -14, -6, -9, 1280, 720
1486724871.7201173, 67, 17, -37, -37, -47, -13, -11, -15, 1280, 720
1486724871.7201889, 69, 24, -31, -62, -51, -11, -17, -8, 1280, 720
1486724871.7332144, 51, 25, -38, -65, -62, -14, -14, -12, 1280, 720
1486724871.7337701, 57, 17, -47, -36, -35, -22, -14, -10, 1280, 720
1486724871.7358696, 55, 7, -44, -20, -31, -21, -16, -2, 1280, 720
1486724871.7405477, 50, 18, -36, -44, -36, -14, -12, -10, 1280, 720
1486724871.7412584, 34, 16, -18, -68, -54, -12, -10, -14, 1280, 720
1486724871.742165, 25, 3, -22, -37, -41, -11, -12, -11, 1280, 720
1486724871.7429357, 3, 18, -51, -39, -38, -12, -12, -14, 1280, 720
1486724871.7556498, -13, -32, -15, 20, 3, -13, -9, -10, 1280, 720
1486724871.756289, -21, -45, 12, 29, 19, -10, -13, -14, 1280, 720
1486724871.7571678, -65, 199, -31, -62, -51, -11, -17, -8, 1280, 720
1486724871.7705677, -95, -90, 32, 57, 35, -15, -9, -13, 1280, 720
1486724871.7715259, -118, -111, 32, 100, 65, -14, -10, -7, 1280, 720
1486724871.7735033, -133, -129, 41, -127, -31, -21, -16, -2, 1280, 720
1486724871.7780683, -162, -143, 58, 121, 86, -4, -10, -18, 1280, 720
1486724871.778983, -183, -157, 66, 117, 84, -6, -8, -19, 1280, 720
1486724871.7822216, -197, -171, 57, 138, -41, -11, -12, -11, 1280, 720
1486724871.7930477, -211, -193, 57, 181, 120, -18, -11, -21, 1280, 720
1486724871.7939384, -208, -196, 66, 191, 128, -18, -17, -18, 1280, 720
1486724871.7947736, -213, -205, 81, 188, 109, -20, -13, -14, 1280, 720
1486724871.8081298, -224, -213, 80, 176, 109, -14, -8, -13, 1280, 720
1486724871.8089826, -221, -214, 61, 182, 126, -11, -9, -13, 1280, 720
1486724871.8106604, -211, -220, 54, 211, 136, -20, -11, -14, 1280, 720
1486724871.815652, -206, -226, 56, 210, 124, -18, -8, -6, 1280, 720
1486724871.8164554, -205, -218, 67, 187, 110, -17, -21, -14, 1280, 720
1486724871.816952, -208, -213, 62, 169, 84, -6, -8, -19, 1280, 720
1486724871.8305976, -198, -211, 46, 174, 109, -14, -16, -11, 1280, 720
1486724871.8315196, -186, -216, 33, 195, 105, -18, -24, -14, 1280, 720
1486724871.832115, -178, -218, 36, 194, 103, -10, -17, -18, 1280, 720
1486724871.845613, -176, -211, 42, 170, 81, -6, -17, -18, 1280, 720
1486724871.8464892, -177, -212, 36, 157, 86, -13, -21, -10, 1280, 720
1486724871.8488667, -172, -213, 27, 169, 97, -16, -9, -13, 1280, 720
1486724871.8531234, -171, -218, 24, 189, 107, -15, -9, -11, 1280, 720
1486724871.8540862, -168, -223, 29, 191, 95, -21, -12, -7, 1280, 720
1486724871.8549418, -172, -215, 36, 166, 76, -18, -17, -14, 1280, 720
1486724871.8680851, -173, -210, 33, 161, 85, -9, -11, -16, 1280, 720
1486724871.8690252, -169, -214, 20, 177, 91, -11, -12, -11, 1280, 720
1486724871.8713102, -163, -216, 15, 189, 108, -9, -12, -12, 1280, 720
1486724871.8830748, -155, -217, 25, 192, 102, -13, -10, -8, 1280, 720
1486724871.8846917, -156, -215, 28, 169, 81, -16, -13, -6, 1280, 720
1486724871.891426, -164, -210, 29, 158, 92, -13, -21, -10, 1280, 720
1486724871.892276, -172, -213, 15, 175, 91, -23, -10, -10, 1280, 720
1486724871.8923554, -164, -212, 15, 193, 107, -15, -13, -17, 1280, 720
1486724871.8947468, -152, -211, 26, 189, 97, -13, -12, -7, 1280, 720
1486724871.9060943, -159, -210, 30, 170, 82, -9, -15, -13, 1280, 720
1486724871.9066157, -162, -210, 28, 160, 81, -16, -16, -4, 1280, 720
1486724871.9073558, -166, -216, 18, 181, 106, -14, -10, -10, 1280, 720
1486724871.9205797, -164, -225, 20, 209, 119, -9, -11, -14, 1280, 720
1486724871.9215329, -159, -228, 29, 197, 110, -3, -9, -11, 1280, 720
1486724871.9224107, -176, -224, 43, 174, 94, -12, -9, -11, 1280, 720
1486724871.928091, -183, -228, 40, 172, 100, -12, -4, -10, 1280, 720
1486724871.929016, -194, -228, 32, 194, 114, -13, -9, -6, 1280, 720
1486724871.9309394, -186, -236, 35, 215, 120, -11, -1, -1, 1280, 720
1486724871.9430482, -187, -233, 47, 200, 103, -12, -11, -2, 1280, 720
1486724871.9440527, -189, -233, 47, 183, 89, -6, 0, -5, 1280, 720
1486724871.94432, -185, -231, 35, 178, 90, -16, -16, -4, 1280, 720
1486724871.9580884, -177, -231, 21, 202, 109, -17, -10, -8, 1280, 720
1486724871.9587226, -180, -237, 18, 212, 112, -14, -2, -3, 1280, 720
1486724871.9606383, -169, -228, 29, 189, 88, -16, -9, -11, 1280, 720
1486724871.9658344, -172, -221, 28, 168, 88, -4, -8, -9, 1280, 720
1486724871.966323, -189, -226, 23, 169, 84, -16, -8, -6, 1280, 720
1486724871.9668593, -176, -224, 16, 189, 107, -13, -10, -16, 1280, 720
1486724871.9805622, -169, -226, 22, 203, 106, -13, -11, -4, 1280, 720
1486724871.9814231, -168, -223, 34, 188, 90, -8, -9, -15, 1280, 720
1486724871.9819937, -165, -223, 32, 164, 84, -13, -13, -14, 1280, 720
1486724871.9822524, -185, -231, 35, 178, 90, -15, -12, -7, 1280, 720
1486724871.995685, -172, -227, 10, 198, 108, -13, -8, -10, 1280, 720
1486724871.9959333, -165, -227, 18, 205, 95, -10, -11, -1, 1280, 720
1486724871.9980745, -169, -228, 29, 189, 88, -16, -13, -4, 1280, 720
1486724872.0029886, -166, -219, 24, 159, 76, -9, -14, -13, 1280, 720
1486724872.003309, -174, -221, 15, 174, 91, -19, -15, -12, 1280, 720
1486724872.0043085, -162, -224, 16, 189, 107, -13, -10, -16, 1280, 720
1486724872.018065, -165, -223, 23, 198, 99, -10, -16, -13, 1280, 720
1486724872.018939, -159, -218, 31, 173, 85, -15, -12, -15, 1280, 720
1486724872.0210254, -164, -214, 29, 164, 84, -13, -13, -14, 1280, 720
1486724872.0330691, -165, -218, 16, 171, 91, -15, -13, -21, 1280, 720
1486724872.033839, -164, -220, 18, 199, 108, -16, -12, -8, 1280, 720
1486724872.03754, -160, -220, 27, 199, 95, -10, -11, -1, 1280, 720
1486724872.0415435, -156, -215, 30, 170, 81, -12, -8, -15, 1280, 720
1486724872.0428245, -159, -212, 24, 157, 78, -16, -13, -8, 1280, 720
1486724872.0442002, -162, -210, 14, 177, 91, -19, -15, -12, 1280, 720
1486724872.0566387, -164, -214, 13, 200, 114, -18, -15, -8, 1280, 720
1486724872.0567353, -146, -217, 22, 193, 100, -19, -14, -9, 1280, 720
1486724872.0579495, -150, -208, 28, 169, 85, -15, -12, -15, 1280, 720
1486724872.071658, -156, -209, 18, 157, 73, -16, -20, -5, 1280, 720
1486724872.0732455, -154, -217, 5, 176, 91, -16, -12, -18, 1280, 720
1486724872.0733263, -153, -216, 8, 198, 109, -16, -12, -8, 1280, 720
1486724872.0780532, -147, -212, 15, 181, 82, -5, -13, -13, 1280, 720
1486724872.078525, -145, -210, 25, 161, 71, -18, -15, -15, 1280, 720
1486724872.0833519, -158, -207, 22, 152, 74, -8, -13, -8, 1280, 720
1486724872.0931225, -154, -210, 5, 177, 95, -14, -10, -16, 1280, 720
1486724872.0941904, -148, -217, 5, 199, 109, -7, -15, -12, 1280, 720
1486724872.0944815, -149, -214, 20, 186, 89, -11, -20, -13, 1280, 720
1486724872.1081746, -155, -212, 28, 161, 71, -13, -15, -19, 1280, 720
1486724872.1091335, -164, -211, 22, 161, 78, -15, -15, -12, 1280, 720
1486724872.1105826, -166, -216, 15, 181, 101, -10, -16, -11, 1280, 720
1486724872.1156216, -160, -219, 18, 199, 103, -9, -19, -12, 1280, 720
1486724872.1166105, -157, -220, 28, 183, 80, -11, -8, -6, 1280, 720
1486724872.1177623, -167, -214, 33, 165, 74, -3, -14, -8, 1280, 720
1486724872.1309547, -177, -216, 23, 169, 90, -4, -9, -15, 1280, 720
1486724872.131053, -165, -213, 15, 180, 100, -10, -12, -10, 1280, 720
1486724872.1347458, -159, -216, 16, 190, 94, -14, -15, -12, 1280, 720
1486724872.1466496, -154, -207, 29, 168, 86, -9, -10, -14, 1280, 720
1486724872.1482632, -168, -205, 30, 140, 63, -14, -17, -20, 1280, 720
1486724872.148334, -171, -207, 18, 150, 82, -18, -13, -12, 1280, 720
1486724872.15779, -162, -211, 11, 172, 94, -19, -12, -9, 2510, 1390
1486724872.1579983, -155, -219, 10, 183, 97, -10, -13, -8, 2510, 1390
1486724872.1592362, -153, -215, 24, 159, 72, -7, -11, -6, 2510, 1390
1486724872.168476, -156, -207, 20, 136, 62, -12, -10, -7, 2510, 1390
1486724872.1692152, -170, -205, 13, 147, 70, -16, -12, -14, 2510, 1390
1486724872.1692848, -165, -206, 12, 172, 97, -12, -11, -10, 2510, 1390
1486724872.1848724, -153, -211, 18, 177, 100, -7, -14, -13, 2510, 1390
1486724872.1873538, -165, -206, 30, 158, 83, -12, -12, -2, 2510, 1390
1486724872.1874356, -165, -204, 21, 139, 72, -14, -17, -20, 2510, 1390
1486724872.1906693, -167, -204, 7, 153, 86, -19, -12, -17, 2510, 1390
1486724872.1916656, -154, -205, 8, 172, 88, -11, -1, -10, 2510, 1390
1486724872.192397, -151, -207, 18, 173, 86, -13, -11, -15, 2510, 1390
1486724872.2062724, -152, -200, 29, 152, 76, -12, -13, -7, 2510, 1390
1486724872.2063434, -157, -200, 21, 133, 68, -11, -10, -10, 2510, 1390
1486724872.2103767, -163, -200, 15, 143, 69, -26, -13, -13, 2510, 1390
1486724872.220663, -158, -209, 5, 166, 78, -19, -10, -11, 2510, 1390
1486724872.2216208, -151, -207, 14, 166, 77, -8, -7, -15, 2510, 1390
1486724872.2219439, -145, -197, 25, 141, 56, -7, -17, -8, 2510, 1390
1486724872.228131, -159, -199, 21, 128, 55, -6, -13, -19, 2510, 1390
1486724872.2291036, -156, -203, 11, 147, 70, -12, -16, -12, 2510, 1390
1486724872.2294188, -155, -205, 13, 177, 87, -9, -10, -14, 2510, 1390
1486724872.2301254, -146, -203, 18, 173, 86, -13, -11, -15, 2510, 1390
1486724872.2432644, -150, -198, 19, 141, 59, -10, -16, -2, 2510, 1390
1486724872.244828, -141, -194, 14, 129, 65, -5, -7, -9, 2510, 1390
1486724872.258106, -154, -197, 3, 146, 77, -19, -12, -16, 2510, 1390
1486724872.2589386, -139, -204, 2, 164, 82, -13, -18, -18, 2510, 1390
1486724872.259545, -138, -202, 11, 154, 67, -16, -15, -10, 2510, 1390
1486724872.2621305, -143, -197, 25, 141, 56, -7, -17, -8, 2510, 1390
1486724872.2655516, 8, 126, 61, -16, -9, -14, -5410, -4038, 2510, 1390
1486724872.266084, -1, 154, 75, -18, -2, -12, 984, -4038, 2510, 1390
1486724872.2805989, -139, -197, 15, 159, 73, -8, -8, -9, 2510, 1390
1486724872.281495, -133, -198, 20, 140, 73, -17, -15, -12, 2510, 1390
1486724872.282813, -151, -195, 16, 139, 69, -12, -16, -2, 2510, 1390
1486724872.303133, -149, -194, 10, 157, 74, -14, -12, -5, 2510, 1390
1486724872.3039565, -142, -196, 12, 170, 77, -16, -13, -7, 2510, 1390
1486724872.3044393, -134, -190, 21, 155, 69, -7, -18, -18, 2510, 1390
1486724872.3068483, -140, -187, 25, 135, 47, -13, -14, -1, 2510, 1390
1486724872.3106613, -153, -186, 28, 135, 55, -24, -18, -11, 2510, 1390
1486724872.3116796, -147, -189, 15, 160, 79, -11, -5390, -4038, 2510, 1390
1486724872.3179262, -141, -192, 23, 174, 73, -14, -20, -8, 2510, 1390
1486724872.3198588, -133, -186, 35, 153, 61, -13, -13, 4, 2510, 1390
1486724872.3235087, -148, -188, 32, 135, 54, -14, -18, -12, 2510, 1390
1486724872.3330958, -142, -183, 23, 141, 69, -11, -7, -3, 2510, 1390
1486724872.3339937, -144, -184, 19, 169, 82, -16, -5, -10, 2510, 1390
1486724872.334877, -141, -198, 18, 173, 86, -14, -15, -7, 2510, 1390
1486724872.3406305, -143, -188, 26, 151, 62, -13, -15, -10, 2510, 1390
1486724872.3412273, -149, -184, 24, 127, 54, -8, -10, -11, 2510, 1390
1486724872.3417451, -151, -183, 17, 137, 53, -8, -18, -11, 2510, 1390
1486724872.3567128, -139, -183, 14, 163, 77, -18, -19, -11, 2510, 1390
1486724872.3567834, -133, -186, 19, 173, 72, -9, -13, -4, 2510, 1390
1486724872.3580184, -133, -180, 27, 150, 65, -13, -13, 4, 2510, 1390
1486724872.3707125, -142, -176, 28, 126, 57, -12, -8, -5, 2510, 1390
1486724872.3716846, -147, -180, 16, 143, 69, -20, -16, -9, 2510, 1390
1486724872.372445, -133, -185, 11, 170, 88, -16, -5, -10, 2510, 1390
1486724872.3791833, -136, -181, 18, 163, 77, -9, -12, -14, 2510, 1390
1486724872.3795493, -123, -174, 23, 138, 62, -7, -6, -7, 2510, 1390
1486724872.3795924, -136, -190, 21, 150, 63, -9, -15, -11, 2510, 1390
1486724872.3941317, -130, -208, -3, 173, 84, -11, -9, -9, 2510, 1390
1486724872.3951585, -140, -223, -16, 211, 106, -7, -9, -6, 2510, 1390
1486724872.3952296, -129, -246, -21, 218, 102, -15, -15, -9, 2510, 1390
1486724872.4082727, -121, -258, -22, 214, 96, -16, -19, -4, 2510, 1390
1486724872.4091563, -132, -278, -37, 217, 101, -6, -11, -10, 2510, 1390
1486724872.4094105, -134, -297, -57, 245, 115, -13, -16, -9, 2510, 1390
1486724872.4186518, -124, -316, -72, 282, 130, -13, -11, -10, 2510, 1390
1486724872.420192, -114, -334, -71, 295, 125, -9, -18, -14, 2510, 1390
1486724872.4248064, -118, -345, -79, 279, 117, -13, -13, -7, 2510, 1390
1486724872.4310777, -119, -361, -100, 289, 120, -13, -11, -6, 2510, 1390
1486724872.4340343, -118, -380, -116, 322, 145, -10, -17, -19, 2510, 1390
1486724872.4341052, -102, -394, -120, 357, 161, -16, -14, -10, 2510, 1390
1486724872.4464025, -93, -405, -112, 368, 142, -16, -15, -9, 2510, 1390
1486724872.4478693, -97, -404, -107, 355, 138, -11, -8, -7, 2510, 1390
1486724872.4479585, -103, -403, -111, 347, 132, -11, -13, -6, 2510, 1390
1486724872.4505303, -94, -297, -57, 245, 115, -13, -11, -4, 2510, 1390
1486724872.4531696, -82, -399, -121, 373, 144, -10, -9, -12, 2510, 1390
1486724872.4535744, -74, -388, -107, 359, 132, -2, -4, -3, 2510, 1390
1486724872.468085, -70, -383, -106, 338, 125, -6, -7, -6, 2510, 1390
1486724872.4690654, -81, -387, -114, 338, 126, -5, -8, -12, 2510, 1390
1486724872.4705353, -77, -393, -127, 366, 146, -14, -16, -12, 2510, 1390
1486724872.4839787, -71, -393, -125, 378, 145, -21, -16, -6, 2510, 1390
1486724872.484493, -76, -393, -111, 356, 138, -3, -10, -7, 2510, 1390
1486724872.484537, -76, -385, -106, 332, 111, -3, -13, -6, 2510, 1390
1486724872.487488, -85, -381, -111, 347, 132, -11, -13, -6, 2510, 1390
1486724872.490576, -73, -390, -127, 357, 144, -10, -9, -10, 2510, 1390
1486724872.491578, -62, -390, -122, 365, 141, -10, -14, -6, 2510, 1390
1486724872.4929674, -65, -380, -110, 355, 132, -2, -4, -3, 2510, 1390
1486724872.5066135, -71, -377, -111, 328, 117, -20, -17, -9, 2510, 1390
1486724872.5066833, -70, -375, -121, 334, 134, -12, -18, -6, 2510, 1390
1486724872.5090964, -67, -384, -128, 350, 130, -14, -16, -12, 2510, 1390
1486724872.521955, -70, -386, -119, 356, 135, -9, -16, -10, 2510, 1390
1486724872.5220282, -61, -371, -111, 328, 109, -16, -21, -13, 2510, 1390
1486724872.5223856, -66, -370, -112, 311, 107, -8, -14, -6, 2510, 1390
1486724872.5281322, -77, -370, -125, 314, 110, -13, -15, -9, 2510, 1390
1486724872.5289917, -67, -374, -135, 335, 125, -14, -10, -12, 2510, 1390
1486724872.5293872, -58, -374, -130, 341, 120, -11, -14, -12, 2510, 1390
1486724872.543151, -60, -370, -126, 320, 104, -12, -13, -10, 2510, 1390
1486724872.5441003, -60, -363, -126, 306, 109, -11, -14, -3, 2510, 1390
1486724872.544964, -63, -367, -140, 313, 111, -16, -11, -6, 2510, 1390
1486724872.5581026, -63, -370, -140, 334, 135, -10, -11, -7, 2510, 1390
1486724872.5590415, -53, -362, -130, 329, 122, -11, -14, -12, 2510, 1390
1486724872.5610256, -48, -360, -122, 309, 107, -5, -11, -11, 2510, 1390
1486724872.5656505, -63, -354, -120, 298, 109, -7, -12, -8, 2510, 1390
1486724872.5665562, -66, -357, -135, 311, 119, -12, -16, -10, 2510, 1390
1486724872.5698087, -56, -355, -133, 333, 123, -14, -10, -12, 2510, 1390
1486724872.5806465, -50, -360, -124, 334, 133, -5, -14, -6, 2510, 1390
1486724872.581676, -57, -352, -116, 303, 111, -9, -10, -3, 2510, 1390
1486724872.5824807, -57, -346, -118, 291, 107, -4, -14, -3, 2510, 1390
1486724872.5956066, -62, -346, -125, 302, 118, -12, -12, -10, 2510, 1390
1486724872.5966887, -57, -350, -124, 321, 131, -16, -20, -8, 2510, 1390
1486724872.598013, -57, -347, -111, 311, 121, -15, -14, -12, 2510, 1390
1486724872.6050699, -69, -349, -107, 291, 97, -15, -21, -8, 2510, 1390
1486724872.6051407, -62, -348, -118, 289, 99, -9, -12, -6, 2510, 1390
1486724872.6062524, -68, -357, -132, 305, 111, -18, -20, -10, 2510, 1390
1486724872.6181257, -52, -369, -135, 329, 131, -15, -14, -11, 2510, 1390
1486724872.618422, -51, -365, -117, 325, 118, -13, -13, -7, 2510, 1390
1486724872.621546, -60, -363, -114, 304, 99, -21, -11, -8, 2510, 1390
1486724872.633556, -65, -355, -120, 299, 104, -13, -8, -2, 2510, 1390
1486724872.634479, -61, -357, -131, 316, 121, -16, -12, -8, 2510, 1390
1486724872.6392002, -56, -359, -130, 330, 121, -16, -12, -3, 2510, 1390
1486724872.640611, -54, -360, -120, 316, 100, -12, -3, -15, 2510, 1390
1486724872.6418033, -49, -346, -116, 293, 98, -13, -13, -8, 2510, 1390
1486724872.6432307, -59, -345, -124, 291, 101, -9, -12, -6, 2510, 1390
1486724872.6556284, -50, -348, -133, 311, 121, -14, -7, -2, 2510, 1390
1486724872.6563878, -49, -346, -123, 327, 122, -19, -13, -9, 2510, 1390
1486724872.6579864, -49, -345, -115, 309, 107, -6, -13, -7, 2510, 1390
1486724872.67072, -53, -334, -109, 285, 93, -5, -12, -18, 2510, 1390
1486724872.6710777, -62, -335, -115, 291, 104, -23, -15, -10, 2510, 1390
1486724872.6724198, -65, -337, -119, 317, 117, -24, -13, -8, 2510, 1390
1486724872.678129, -57, -342, -115, 326, 122, -22, -17, -16, 2510, 1390
1486724872.6789303, -62, -339, -104, 303, 104, -16, -14, -11, 2510, 1390
1486724872.6796803, -56, -329, -110, 278, 92, -11, -13, -14, 2510, 1390
1486724872.681319, -59, -345, -124, 291, 101, -11, -10, -15, 2510, 1390
1486724872.6931088, -59, -338, -117, 311, 122, -14, -16, -11, 2510, 1390
1486724872.694053, -47, -339, -113, 320, 126, -14, -8, -7, 2510, 1390
1486724872.6946342, -49, -345, -115, 309, 107, -6, -5, -10, 2510, 1390
1486724872.7082915, -55, -335, -101, 282, 90, -14, -8, -4, 2510, 1390
1486724872.7086022, -63, -334, -112, 288, 106, -7, -5, 5, 2510, 1390
1486724872.7109683, -65, -340, -119, 317, 117, -24, -13, -11, 2510, 1390
1486724872.7155886, -55, -334, -106, 311, 119, -11, -6, -5, 2510, 1390
1486724872.716616, -53, -325, -94, 291, 89, -13, -17, -11, 2510, 1390
1486724872.7183573, -67, -327, -94, 278, 92, -11, -13, -14, 2510, 1390
1486724872.7306497, -63, -324, -111, 276, 100, -13, -14, -14, 2510, 1390
1486724872.7315817, -55, -326, -113, 300, 118, -12, -8, -6, 2510, 1390
1486724872.7342374, -48, -325, -110, 300, 126, -14, -8, -7, 2510, 1390
1486724872.7456038, -56, -318, -95, 278, 90, -13, -11, -11, 2510, 1390
1486724872.7464678, -67, -321, -97, 267, 89, -12, -11, -17, 2510, 1390
1486724872.7479746, -61, -321, -105, 287, 100, -7, -5, 5, 2510, 1390
1486724872.753188, -60, -324, -105, 308, 118, -17, -10, -8, 2510, 1390
1486724872.7542453, -58, -323, -96, 305, 117, -10, -12, -15, 2510, 1390
1486724872.755191, -51, -318, -90, 286, 88, -6, -14, -11, 2510, 1390
1486724872.7681277, -55, -321, -96, 274, 88, -13, -9, -8, 2510, 1390
1486724872.7691574, -57, -318, -104, 288, 102, -14, -8, -5, 2510, 1390
1486724872.77096, -57, -320, -106, 307, 116, -16, -13, -14, 2510, 1390
1486724872.7831612, -49, -320, -95, 308, 108, -11, -11, -10, 2510, 1390
1486724872.7840445, -60, -317, -90, 282, 94, -17, -15, -9, 2510, 1390
1486724872.7869816, -70, -313, -94, 272, 89, -23, -8, -8, 2510, 1390
1486724872.7916174, -65, -316, -106, 294, 112, -11, -9, -15, 2510, 1390
1486724872.7916882, -54, -313, -103, 307, 123, -12, -8, -5, 2510, 1390
1486724872.7922668, -56, -314, -93, 298, 98, -12, -20, -13, 2510, 1390
1486724872.806641, -48, -309, -92, 269, 93, -9, -9, -11, 2510, 1390
1486724872.8069386, -61, -311, -94, 268, 86, -8, -12, -2, 2510, 1390
1486724872.8069708, -60, -313, -101, 296, 109, -14, -8, -5, 2510, 1390
1486724872.8206472, -49, -320, -101, 311, 124, -8, -11, -12, 2510, 1390
1486724872.8215756, -45, -314, -89, 296, 105, -12, -13, -13, 2510, 1390
1486724872.8234007, -38, -304, -84, 272, 91, -8, -15, -9, 2510, 1390
1486724872.828074, -57, -300, -90, 269, 90, -11, -10, -4, 2510, 1390
1486724872.8287158, -63, -299, -97, 286, 113, -12, -5, -13, 2510, 1390
1486724872.8295856, -61, -303, -92, 300, 116, -21, -8, -5, 2510, 1390
1486724872.8431187, -53, -301, -85, 282, 99, -13, -12, -9, 2510, 1390
1486724872.8440917, -61, -296, -82, 257, 77, -13, -15, -5, 2510, 1390
1486724872.8444464, -71, -295, -90, 257, 94, -13, -14, -17, 2510, 1390
1486724872.8581305, -63, -297, -98, 282, 113, -12, -13, -13, 2510, 1390
1486724872.859081, -60, -299, -91, 291, 111, -6, -10, -20, 2510, 1390
1486724872.8607817, -59, -292, -83, 276, 97, -5, -12, -7, 2510, 1390
1486724872.8657138, -54, -293, -82, 252, 87, -9, -14, -12, 2510, 1390
1486724872.8666277, -70, -292, -87, 254, 96, -14, -15, -11, 2510, 1390
1486724872.8673053, -71, -296, -94, 276, 116, -12, -5, -13, 2510, 1390
1486724872.8806417, -60, -295, -91, 283, 116, -12, -16, -15, 2510, 1390
1486724872.8816566, -60, -295, -84, 263, 95, -16, -17, -11, 2510, 1390
1486724872.8839357, -60, -287, -82, 243, 95, -5, -11, -5, 2510, 1390
1486724872.8956947, -64, -287, -91, 254, 96, -11, -7, -4, 2510, 1390
1486724872.8966272, -62, -292, -96, 276, 111, -9, -7, -9, 2510, 1390
1486724872.8974092, -63, -292, -87, 282, 106, -9, -16, -15, 2510, 1390
1486724872.903217, -58, -286, -81, 261, 100, -6, -10, -14, 2510, 1390
1486724872.9040852, -59, -284, -81, 246, 87, -11, -10, -21, 2510, 1390
1486724872.9054844, -63, -288, -91, 259, 89, -13, -2, -20, 2510, 1390
1486724872.9181778, -61, -285, -90, 281, 116, -15, -13, -15, 2510, 1390
1486724872.918551, -54, -287, -85, 279, 114, -8, -11, -18, 2510, 1390
1486724872.9217613, -53, -283, -79, 247, 82, -7, -10, -1, 2510, 1390
1486724872.9331694, -65, -277, -85, 231, 79, -10, -10, -8, 2510, 1390
1486724872.9337685, -64, -278, -99, 243, 89, -19, -11, -11, 2510, 1390
1486724872.934858, -60, -284, -100, 265, 95, -14, -15, -8, 2510, 1390
1486724872.9357688, -51, -292, -87, 282, 106, -9, -16, -15, 2510, 1390
1486724872.9406738, -59, -280, -74, 248, 82, -13, -9, -9, 2510, 1390
1486724872.9409611, -58, -278, -81, 240, 84, -12, -10, -11, 2510, 1390
1486724872.9442368, -57, -282, -91, 259, 89, -13, -2, -20, 2510, 1390
1486724872.955781, -58, -284, -93, 281, 106, -15, -18, -12, 2510, 1390
1486724872.9567323, -37, -282, -81, 278, 103, -10, -14, -14, 2510, 1390
1486724872.9583304, -58, -284, -77, 252, 82, -7, -10, -1, 2510, 1390
1486724872.9708412, -62, -278, -78, 242, 83, -11, -15, -10, 2510, 50
1486724872.9713733, -62, -277, -91, 254, 97, -12, -12, -7, 2510, 50
1486724872.9752145, -51, -281, -91, 275, 109, -13, -14, -8, 2510, 50
1486724872.978181, -48, -275, -87, 264, 88, -11, -7, -1, 2510, 50
1486724872.9784663, -37, -273, -78, 244, 68, -19, -12, -7, 2510, 50
1486724872.9794192, -61, -273, -83, 240, 84, -12, -10, -11, 2510, 50
1486724872.9931915, -67, -273, -91, 254, 103, -12, -12, -16, 2510, 50
1486724872.9937778, -55, -273, -87, 268, 111, -9, -17, -7, 2510, 50
1486724872.9941542, -59, -273, -74, 264, 103, -10, -14, -14, 2510, 50
1486724873.0091844, -53, -264, -68, 237, 83, -12, -14, -10, 2510, 50
1486724873.0093212, -66, -264, -74, 232, 75, -13, -4, -6, 2510, 50
1486724873.009851, -59, -266, -85, 249, 104, -12, -12, -7, 2510, 50
1486724873.0158393, -62, -268, -79, 260, 100, -14, -16, -11, 2510, 50
1486724873.0165749, -58, -269, -71, 243, 91, -11, -10, -11, 2510, 50
1486724873.0180914, -56, -263, -70, 224, 82, -19, -12, -7, 2510, 50
1486724873.0306563, -63, -263, -80, 222, 81, -7, -5, -11, 2510, 50
1486724873.0316823, -63, -265, -93, 241, 91, -9, -8, 0, 2510, 50
1486724873.0329168, -57, -266, -84, 258, 92, -22, -15, -6, 2510, 50
1486724873.0466964, -55, -262, -69, 240, 79, -13, -13, -6, 2510, 50
1486724873.0493448, -61, -259, -64, 221, 68, -10, -11, -12, 2510, 50
1486724873.0494254, -73, -263, -71, 225, 85, -9, -14, -10, 2510, 50
1486724873.0532212, -61, -263, -77, 248, 99, -17, -13, -17, 2510, 50
1486724873.053612, -58, -255, -66, 253, 94, -17, -13, -14, 2510, 50
1486724873.0545275, -59, -252, -61, 227, 77, -11, -10, -11, 2510, 50
1486724873.0681887, -65, -250, -59, 209, 68, -14, -6, -16, 2510, 50
1486724873.0685759, -67, -251, -69, 220, 81, -12, -16, -1, 2510, 50
1486724873.0703487, -69, -254, -70, 247, 105, -13, -8, 0, 2510, 50
1486724873.0838935, -63, -254, -62, 253, 101, -10, -10, -6, 2510, 50
1486724873.0839627, -65, -253, -56, 229, 73, -6, 0, -3, 2510, 50
1486724873.084832, -66, -248, -57, 210, 74, -11, -9, -12, 2510, 50
1486724873.0907865, -78, -244, -63, 222, 88, -11, -7, -15, 2510, 50
1486724873.0917149, -71, -255, -73, 247, 101, -16, -5, -11, 2510, 50
1486724873.0919633, -64, -258, -66, 247, 94, -8, -5, -10, 2510, 50
1486724873.1066098, -57, -249, -58, 224, 82, -1, -8, -11, 2510, 50
1486724873.107623, -59, -243, -57, 213, 62, -16, -12, -8, 2510, 50
1486724873.107695, -63, -248, -69, 224, 78, -19, -11, -9, 2510, 50
1486724873.121707, -63, -252, -72, 249, 99, -19, -18, -14, 2510, 50
1486724873.1217766, -50, -251, -61, 253, 93, -14, -22, -17, 2510, 50
1486724873.1226778, -57, -246, -46, 226, 78, -6, 0, -3, 2510, 50
1486724873.1281748, -67, -240, -53, 214, 76, -11, -12, -15, 2510, 50
1486724873.1285698, -59, -245, -63, 230, 93, -11, -8, -10, 2510, 50
1486724873.1297002, -61, -248, -67, 248, 94, -13, -12, -17, 2510, 50
1486724873.144205, -56, -249, -50, 246, 89, -12, -15, -12, 2510, 50
1486724873.144275, -67, -247, -45, 223, 70, -14, -23, -11, 2510, 50
1486724873.1464512, -67, -244, -45, 213, 68, -9, -11, -15, 2510, 50
1486724873.1599953, -64, -244, -61, 227, 71, -18, -17, -14, 2510, 50
1486724873.1656656, -59, -249, -64, 248, 90, -17, -17, -12, 2510, 50
1486724873.1666665, -56, -245, -53, 236, 81, -5, -19, -9, 2510, 50
1486724873.16707, -64, -244, -48, 214, 66, -11, -11, -17, 2510, 50
1486724873.167549, -73, -241, -50, 207, 72, -11, -12, -17, 2510, 50
1486724873.1735778, -65, -236, -64, 223, 82, -15, -15, -20, 2510, 50
1486724873.176282, -56, -241, -67, 248, 94, -13, -12, -17, 2510, 50
1486724873.1809132, -89, -240, -26, 224, 76, -10, -10, -6, 2510, 50
1486724873.1815186, -89, -230, -11, 201, 71, -17, -15, -11, 2510, 50
1486724873.1821835, -98, -233, -19, 219, 78, -9, -11, -15, 2510, 50
1486724873.1956773, -118, -239, -10, 240, 102, -22, -20, -21, 2510, 50
1486724873.1966977, -158, -239, 27, 241, 103, -15, -16, -13, 2510, 50
1486724873.1975844, -188, -233, 57, 227, 106, -12, -19, -9, 2510, 50
1486724873.2032027, -234, -242, 95, 209, 97, -14, -9, -9, 2510, 50
1486724873.2041974, -288, -249, 121, 220, 116, -15, -10, -13, 2510, 50
1486724873.2044477, -331, -265, -64, 223, 82, -15, -15, -20, 2510, 50
1486724873.2181644, -347, -273, 169, 265, 143, -24, -12, -13, 2510, 50
1486724873.2185616, -370, -276, 198, 246, 152, -17, -14, -9, 2510, 50
1486724873.219658, -428, -268, 237, 223, 136, -18, -15, -11, 2510, 50
1486724873.233227, -447, -274, 235, 236, 154, -8, -9, -11, 2510, 50
1486724873.234229, -463, -286, 242, 249, 155, -13, -19, -18, 2510, 50
1486724873.2345767, -457, -275, 253, 244, 148, -17, -19, -13, 2510, 50
1486724873.2407494, -459, -273, 262, 225, 129, -10, -19, -17, 2510, 50
1486724873.2413678, -461, -268, 256, 202, 117, -13, -12, -11, 2510, 50
1486724873.241602, -461, -279, 236, 209, 123, -15, -11, -4, 2510, 50
1486724873.256711, -449, -283, 221, 225, 139, -11, -10, -15, 2510, 50
1486724873.2577453, -430, -288, 214, 226, 130, -14, -13, -21, 2510, 50
1486724873.2578175, -431, -284, 219, 204, 109, -20, -14, -9, 2510, 50
1486724873.2707317, -425, -284, 201, 181, 102, -14, -16, -14, 2510, 50
1486724873.2717273, -421, -287, 179, 181, 108, -13, -13, -16, 2510, 50
1486724873.2728002, -413, -290, 172, 204, 123, -14, -20, -16, 2510, 50
1486724873.2781835, -397, -293, 171, 200, 108, -10, -15, -18, 2510, 50
1486724873.2791038, -387, -290, 174, 169, 86, -1, -11, -22, 2510, 50
1486724873.2803946, -398, -292, 165, 156, 74, -5, -15, -15, 2510, 50
1486724873.2931256, -394, -294, 154, 171, 87, -14, -11, -19, 2510, 50
1486724873.2941597, -389, -302, 151, 194, 95, -14, -27, -21, 2510, 50
1486724873.294553, -381, -299, 156, 189, 91, -13, -22, -21, 2510, 50
1486724873.308132, -378, -289, 158, 162, 71, -12, -11, -10, 2510, 50
1486724873.309158, -389, -285, 149, 148, 72, -13, -11, -12, 2510, 50
1486724873.3106387, -378, -291, 133, 162, 91, -16, -16, -11, 2510, 50
1486724873.315672, -373, -293, 127, 177, 94, -11, -19, -14, 2510, 50
1486724873.316538, -366, -288, 140, 177, 83, -8, -15, -16, 2510, 50
1486724873.317239, -368, -289, 144, 155, 74, -7, -14, -9, 2510, 50
1486724873.3306632, -365, -287, 140, 147, 67, -14, -7, -10, 2510, 50
1486724873.33094, -367, -288, 130, 165, 72, -11, -16, -8, 2510, 50
1486724873.3330069, -371, -292, 129, 182, 95, -14, -27, -21, 2510, 50
1486724873.345649, -361, -288, 137, 171, 77, -15, -21, -15, 2510, 50
1486724873.3459644, -362, -286, 139, 145, 61, -13, -18, -13, 2510, 50
1486724873.3471918, -364, -282, 130, 137, 69, -8, -11, -12, 2510, 50
1486724873.3542187, -383, -281, 132, 152, 77, -17, -16, -16, 2510, 50
1486724873.3547091, -360, -282, 121, 171, 85, -12, -17, -14, 2510, 50
1486724873.3547802, -360, -281, 133, 161, 74, -11, -24, -16, 2510, 50
1486724873.3681839, -363, -273, 146, 138, 65, -16, -22, -19, 2510, 50
1486724873.3688443, -372, -275, 141, 140, 68, -12, -27, -19, 2510, 50
1486724873.3697844, -380, -281, 129, 153, 78, -13, -10, -14, 2510, 50
1486724873.3831613, -360, -272, 126, 159, 73, -13, -8, -7, 2510, 50
1486724873.3839965, -357, -274, 141, 148, 65, -11, -14, -14, 2510, 50
1486724873.3849235, -365, -275, 145, 122, 49, -4, -6, -9, 2510, 50
1486724873.3859508, -372, -282, 130, 137, 69, -8, -15, -13, 2510, 50
1486724873.391544, -370, -274, 128, 144, 71, -17, -10, -9, 2510, 50
1486724873.3925238, -354, -273, 129, 157, 79, -12, -21, -13, 2510, 50
1486724873.406657, -352, -272, 141, 136, 55, -10, -8, -8, 2510, 50
1486724873.4067354, -363, -265, 141, 112, 47, -18, -13, -15, 2510, 50
1486724873.407055, -357, -265, 134, 119, 57, -8, -10, -15, 2510, 50
1486724873.4206767, -359, -269, 124, 140, 62, -13, -12, -9, 2510, 50
1486724873.4215724, -343, -268, 133, 147, 66, -9, -18, -16, 2510, 50
1486724873.4219718, -345, -269, 135, 127, 45, -9, -17, -8, 2510, 50
1486724873.422884, -348, -275, 145, 122, 49, -4, -6, -9, 2510, 50
1486724873.4282987, -351, -267, 122, 144, 61, -16, -18, -18, 2510, 50
1486724873.4290676, -344, -265, 130, 147, 71, -17, -10, -9, 2510, 50
1486724873.443162, -334, -255, 141, 115, 39, -8, -7, -10, 2510, 50
1486724873.4440916, -342, -257, 137, 103, 28, -16, -13, -7, 2510, 50
1486724873.4447117, -342, -254, 128, 113, 47, -18, -13, -15, 2510, 50
1486724873.4581585, -349, -268, 126, 139, 56, -18, -17, -17, 2510, 50
1486724873.4590647, -336, -263, 134, 132, 58, -9, -18, -17, 2510, 50
1486724873.46066, -329, -259, 141, 114, 31, -9, -18, -16, 2510, 50
1486724873.4659796, -344, -262, 136, 100, 30, -13, -16, -13, 2510, 50
1486724873.4663823, -336, -254, 126, 118, 47, -9, -9, -15, 2510, 50
1486724873.466596, -332, -262, 119, 141, 59, -14, -18, -18, 2510, 50
1486724873.4806314, -328, -265, 129, 140, 41, -21, -14, -7, 2510, 50
1486724873.4816437, -333, -254, 140, 119, 36, -11, -20, -4, 2510, 50
1486724873.482434, -348, -254, 139, 110, 38, -20, -13, -7, 2510, 50
1486724873.4966328, -339, -258, 123, 124, 49, -15, -16, -17, 2510, 50
1486724873.4978123, -333, -258, 122, 140, 66, -12, -10, -3, 2510, 50
1486724873.4978845, -329, -262, 131, 139, 55, -9, -6, -17, 2510, 50
1486724873.5041382, -336, -255, 138, 119, 44, -5, -10, -18, 2510, 50
1486724873.504727, -341, -252, 131, 110, 34, -16, -15, -12, 2510, 50
1486724873.504798, -338, -250, 122, 125, 44, -24, -18, -5, 2510, 50
1486724873.5190995, -327, -250, 123, 143, 64, -13, -16, -12, 2510, 50
1486724873.5226204, -329, -256, 131, 131, 45, -14, -13, -7, 2510, 50
1486724873.5226905, -321, -248, 140, 111, 35, -11, -20, -4, 2510, 50
1486724873.5331666, -331, -249, 129, 107, 37, -13, -9, -8, 2510, 50
1486724873.533684, -330, -252, 117, 123, 55, -7, -7, -7, 2510, 50
1486724873.5342023, -315, -254, 118, 142, 68, -6, -21, -9, 2510, 50
1486724873.5406451, -316, -248, 126, 124, 40, -9, -20, -3, 2510, 50
1486724873.5416255, -330, -243, 135, 100, 25, -12, -12, -10, 2510, 50
1486724873.5455296, -337, -242, 124, 104, 41, -6, -15, -7, 2510, 50
1486724873.5557578, -328, -246, 118, 131, 58, -14, -10, -12, 2510, 50
1486724873.5566494, -329, -249, 119, 143, 58, -9, -17, -8, 2510, 50
1486724873.5586474, -318, -242, 125, 121, 51, -7, -15, -12, 2510, 50
1486724873.5709045, -325, -240, 127, 101, 40, -3, -15, -14, 2510, 50
1486724873.5714245, -337, -242, 124, 102, 39, -11, -13, -16, 2510, 50
1486724873.5722196, -328, -245, 118, 124, 55, -7, -7, -7, 2510, 50
1486724873.5781546, -325, -243, 125, 130, 51, -17, -16, -18, 2510, 50
1486724873.5792272, -320, -239, 136, 115, 39, -15, -16, -14, 2510, 50
1486724873.58242, -324, -233, 133, 91, 25, -16, -19, -10, 2510, 50
1486724873.5932717, -322, -231, 128, 104, 46, -10, -16, -18, 2510, 50
1486724873.5941393, -325, -235, 125, 125, 58, -17, -20, -18, 2510, 50
1486724873.598524, -316, -230, 132, 128, 52, -15, -18, -8, 2510, 50
1486724873.608175, -320, -225, 142, 109, 35, -10, -15, -16, 2510, 50
1486724873.6091537, -323, -220, 140, 90, 16, -11, -16, -9, 2510, 50
1486724873.610393, -320, -228, 127, 103, 28, -8, -15, -5, 2510, 50
1486724873.6159832, -322, -230, 120, 126, 55, -7, 14896, -15376, 2510, 50
1486724873.6164322, -313, -227, 125, 106, 29, -11, -16, -14, 2510, 50
1486724873.618187, -320, -239, 136, 115, 39, -15, -16, -14, 2510, 50
1486724873.630677, -316, -231, 117, 102, 34, -19, -13, -12, 2510, 50
1486724873.6315246, -310, -232, 111, 129, 56, -13, -13, -12, 2510, 50
1486724873.6324885, -301, -235, 125, 125, 58, -17, -20, -18, 2510, 50
1486724873.6457067, -319, -226, 127, 93, 36, -9, -9, -8, 2510, 50
1486724873.6466498, -316, -219, 123, 79, 23, -11, -19, -6, 2510, 50
1486724873.647638, -316, -220, 115, 90, 16, -11, -16, -9, 2510, 50
1486724873.6532595, -317, -220, 117, 119, 51, -19, -19, -2, 2510, 50
1486724873.6542192, -312, -221, 118, 110, 42, -18, -17, -14, 2510, 50
1486724873.6561177, -308, -212, 133, 88, 31, -11, -16, -14, 2510, 50
1486724873.668155, -312, -210, 131, 77, 26, -16, -13, -16, 2510, 50
1486724873.6691532, -311, -213, 123, 94, 42, -19, -14, -5, 2510, 50
1486724873.6700244, -317, -220, 111, 129, 56, -13, -13, -12, 2510, 50
1486724873.6831238, -308, -215, 123, 108, 37, -17, -15, -13, 2510, 50
1486724873.6841655, -307, -209, 130, 89, 30, -8, -18, -12, 2510, 50
1486724873.688178, -312, -210, 126, 85, 32, -11, -19, -6, 2510, 50
1486724873.6908064, -319, -211, 123, 107, 53, -10, -14, -17, 2510, 50
1486724873.6917691, -311, -219, 119, 122, 59, -14, -10, -3, 2510, 50
1486724873.6935337, -308, -217, 129, 103, 46, -10, -17, -14, 2510, 50
1486724873.7056446, -309, -211, 134, 77, 31, -2, -8, -9, 2510, 50
1486724873.7066705, -320, -212, 121, 74, 30, -8, -19, -11, 2510, 50
1486724873.7077696, -310, -206, 112, 90, 53, -17, -19, -21, 2510, 50
1486724873.7207205, -306, -213, 115, 114, 58, -14, -13, -17, 2510, 50
1486724873.7218046, -305, -206, 132, 104, 36, -8, -12, -4, 2510, 50
1486724873.722228, -313, -212, 139, 79, 31, -8, -18, -12, 2510, 50
1486724873.728456, -316, -208, 129, 82, 22, -12, -18, -13, 2510, 50
1486724873.7292879, -311, -217, 122, 112, 47, -5, -10, -15, 2510, 50
1486724873.7301238, -304, -213, 125, 121, 52, -14, -10, -3, 2510, 50
1486724873.7432241, -301, -208, 140, 110, 39, -8, -20, -15, 2510, 50
1486724873.744225, -307, -202, 141, 78, 19, -11, -22, -11, 2510, 50
1486724873.7461634, -310, -206, 131, 92, 43, -11, -13, -4, 2510, 50
1486724873.7581816, -319, -207, 130, 108, 49, -10, -12, -12, 2510, 50
1486724873.7588818, -306, -206, 133, 121, 51, -17, -9, -19, 2510, 50
1486724873.762109, -303, -210, 141, 101, 36, -10, -11, -13, 2510, 50
1486724873.765713, -304, -200, 147, 84, 18, -16, -14, -19, 2510, 50
1486724873.7667115, -316, -204, 136, 90, 25, -13, -11, -15, 2510, 50
1486724873.766997, -298, -204, 126, 111, 43, -10, -20, -11, 2510, 50
