# error with vertical electrode!!
t, ch0, ch1, ch2, ch3, ch4, ch5, ch6, ch7, x, y
1486725607.7871125, -57, -66, -11, 43, 3, -19, -16, -8, 0, 0
1486725607.787188, -60, -65, -10, 21, -8, -13, -13, -9, 0, 0
1486725607.7872136, -73, -60, -11, 19, -11, -28, -19, -14, 0, 0
1486725607.7872343, -66, -55, -10, 38, 3, -25, -12, -10, 0, 0
1486725607.787254, -60, -61, -9, 55, 21, -17, -11, -6, 0, 0
1486725607.7872736, -53, -64, -10, 50, 17, -13, -12, -7, 0, 0
1486725607.7872932, -63, -63, -9, 26, -4, -14, -20, -21, 0, 0
1486725607.787316, -65, -62, -10, 23, -3, -11, -10, -14, 0, 0
1486725607.7873352, -69, -64, -11, 42, 12, -15, 15094, -11280, 0, 0
1486725607.7873874, -59, -49, -11, 13, -13, -20, -14, -12, 0, 0
1486725607.7874122, -52, -48, -10, 27, 1, -15, -6, -7, 0, 0
1486725607.7874413, -44, -55, -10, 38, -3, -19, -14, -13, 0, 0
1486725607.7874603, -51, -47, -9, 6, -28, -7, -11, -9, 0, 0
1486725607.7874794, -63, -47, -10, -11, -28, -7, -1, -9, 0, 0
1486725607.7874978, -74, -46, -9, 7, -3, -4, -3, -17, 0, 0
1486725607.7875175, -303, -227, -10, 159, 70, -15, -5, -8, 0, 0
1486725607.7875383, -251, -292, -10, 178, 51, -17, -13, -14, 0, 0
1486725607.7875597, -249, -290, -10, 174, 44, -10, -5, -11, 0, 0
1486725607.7875807, -257, -291, -9, 154, 32, -18, -7, -8, 0, 0
1486725607.7876012, -255, -287, -10, 151, 32, -18, -11, -19, 0, 0
1486725607.7876203, -256, -284, -11, 173, 62, -20, -14, -15, 0, 0
1486725607.787639, -249, -273, -11, 154, 51, -15, -13, -14, 0, 0
1486725607.7879846, -258, -270, -11, 130, 44, -15, -12, -12, 0, 0
1486725607.788021, -264, -266, -12, 135, 49, -14, -9, -14, 0, 0
1486725607.7880456, -239, -253, -10, 138, 53, -13, -7, -16, 0, 0
1486725607.7880669, -234, -248, -10, 128, 47, -15, -11, -16, 0, 0
1486725607.7880874, -249, -256, -10, 112, 36, -8, -9, -8, 0, 0
1486725607.7881067, -256, -257, -11, 105, 31, -11, -11, -10, 0, 0
1486725607.7881258, -210, -237, -10, 128, 44, -10, -12, -14, 0, 0
1486725607.7881444, -215, -237, -11, 111, 31, -11, -8, -13, 0, 0
1486725607.7881923, -219, -230, -10, 91, 23, -17, -10, -7, 0, 0
1486725607.7882211, -231, -229, -11, 89, 19, -15, -11, -5, 0, 0
1486725607.7882402, -217, -217, -11, 107, 48, -17, -10, -12, 0, 0
1486725607.7882588, -211, -217, -11, 112, 48, -15, -12, -11, 0, 0
1486725607.7882779, -207, -211, -12, 95, 35, -12, -7, -2, 0, 0
1486725607.788297, -223, -211, -10, 78, 32, -7, -4, -9, 0, 0
1486725607.7883162, -220, -202, -10, 85, 31, -14, 0, -11, 0, 0
1486725607.7883348, -206, -211, -11, 111, 42, -15, -7, -7, 0, 0
1486725607.7883532, -197, -223, -9, 128, 44, -14, -9, -11, 0, 0
1486725607.7883718, -212, -225, -10, 107, 42, -11, -9, -7, 0, 0
1486725607.7883906, -228, -231, -10, 107, 41, -6, -8, -7, 0, 0
1486725607.7884138, -225, -226, -10, 119, 49, -15, -7, -15, 0, 0
1486725607.7884345, -216, -231, -10, 136, 51, -23, -15, -4, 0, 0
1486725607.7884533, -206, -232, -10, 132, 46, -17, -15, -6, 0, 0
1486725607.7884715, -209, -228, -9, 111, 44, -13, -10, -6, 0, 0
1486725607.791132, -217, -229, -10, 93, 42, -12, -12, -12, 0, 0
1486725607.7912028, -213, -223, -10, 110, 41, -18, -11, -13, 0, 0
1486725607.7912285, -207, -234, -10, 134, 52, -15, -7, -7, 0, 0
1486725607.7912624, -194, -232, -11, 120, 40, -17, -18, -9, 0, 0
1486725607.7912862, -201, -227, -10, 105, 32, -10, -19, -7, 0, 0
1486725607.7913067, -217, -231, -10, 101, 36, -12, -12, -7, 0, 0
1486725607.7913268, -216, -230, -9, 116, 34, -16, -11, -12, 0, 0
1486725607.7913456, -195, -226, -10, 135, 52, -14, -16, -9, 0, 0
1486725607.7913647, -194, -233, -10, 124, 46, -17, -15, -6, 0, 0
1486725607.7913833, -200, -229, -10, 103, 32, -9, -11, -8, 0, 0
1486725607.791402, -210, -225, -11, 95, 31, -16, -11, -9, 0, 0
1486725607.7914207, -207, -219, -10, 118, 48, -11, -11, -13, 0, 0
1486725607.7914393, -196, -221, -9, 129, 50, -8, -4, -6, 0, 0
1486725607.791458, -197, -220, -11, 122, 45, -16, -13, -18, 0, 0
1486725607.7914765, -204, -215, -10, 96, 34, -9, -9, -7, 0, 0
1486725607.7914948, -219, -218, -10, 98, 28, -17, -8, -16, 0, 0
1486725607.7915134, -204, -205, -10, 118, 50, -16, -6, -14, 0, 0
1486725607.7915318, -205, -215, -10, 126, 46, -17, -10, -9, 0, 0
1486725607.791556, -198, -208, -10, 105, 31, -20, -18, -17, 0, 0
1486725607.7915776, -205, -207, -10, 81, 27, -11, -15, -16, 0, 0
1486725607.7915974, -220, -210, -11, 81, 25, -16, -11, -9, 0, 0
1486725607.7916186, -209, -211, -10, 105, 40, -13, -8, -18, 0, 0
1486725607.7916393, -197, -215, -10, 119, 47, -13, -16, -18, 0, 0
1486725607.7916613, -197, -217, -11, 103, 34, -13, -13, -18, 0, 0
1486725607.7925565, -208, -215, -10, 74, 26, -15, -25, -19, 0, 0
1486725607.792673, -209, -204, -9, 80, 20, -24, -17, -20, 0, 0
1486725607.7927005, -197, -202, -10, 98, 43, -7, -5, -14, 0, 0
1486725607.7927408, -195, -214, -9, 104, 41, -10, -11, -12, 0, 0
1486725607.7927725, -189, -204, -10, 83, 33, -7, -9, -10, 0, 0
1486725607.7927923, -201, -204, -10, 72, 25, -6, -16, -15, 0, 0
1486725607.7928214, -207, -194, -9, 72, 28, -22, -16, -13, 0, 0
1486725607.7928402, -200, -198, -10, 92, 41, -14, -13, -17, 0, 0
1486725607.792859, -186, -196, -10, 101, 33, -13, -17, -6, 0, 0
1486725607.792878, -195, -198, -9, 78, 18, -14, -10, -12, 0, 0
1486725607.7928965, -198, -198, -10, 66, 24, -16, -17, -17, 0, 0
1486725607.792915, -207, -194, -10, 78, 22, -24, -17, -20, 0, 0
1486725607.7929337, -203, -195, -9, 98, 41, -15, -12, -7, 0, 0
1486725607.7929523, -192, -196, -9, 96, 33, -11, -14, -6, 0, 0
1486725607.7929707, -188, -194, -10, 70, 28, -9, -9, -10, 0, 0
1486725607.7929893, -196, -193, -9, 57, 17, -7, -8, -19, 0, 0
1486725607.7930074, -199, -191, -9, 72, 26, -9, -10, -15, 0, 0
1486725607.793026, -181, -192, -9, 93, 39, -9, -13, -17, 0, 0
1486725607.7930486, -181, -195, -10, 90, 38, -8, -8, -9, 0, 0
1486725607.79307, -187, -185, -10, 79, 32, -11, -7, -3, 0, 0
1486725607.7930915, -200, -190, -11, 75, 35, -5, -6, -14, 0, 0
1486725607.7931106, -202, -189, -10, 94, 51, -6, -5, -12, 0, 0
1486725607.7931292, -185, -190, -11, 115, 55, -13, -13, -14, 0, 0
1486725607.793684, -171, -187, -10, 103, 47, -10, -14, -15, 0, 0
1486725607.7937381, -188, -194, -10, 70, 28, -9, -16, -7, 0, 0
1486725607.7937624, -190, -179, -10, 73, 31, -6, -7, -12, 0, 0
1486725607.793784, -178, -186, -10, 90, 33, -9, -12, -17, 0, 0
1486725607.793804, -167, -189, -9, 93, 39, -9, -8, -5, 0, 0
1486725607.7938328, -172, -179, -9, 92, 33, -10, -21, -17, 0, 0
1486725607.7938542, -171, -180, -10, 73, 10, -11, -12, -14, 0, 0
1486725607.7938743, -177, -175, -11, 66, 18, -17, -22, -16, 0, 0
1486725607.7939231, -162, -175, -10, 89, 40, -13, -14, -17, 0, 0
1486725607.7939425, -161, -181, -10, 90, 36, -7, -15, -15, 0, 0
1486725607.7939618, -158, -187, -10, 103, 47, -10, -14, -15, 0, 0
1486725607.7939808, -155, -174, -10, 55, 15, -8, -8, -16, 0, 0
1486725607.794, -170, -175, -11, 55, 15, -7, -12, -6, 0, 0
1486725607.7940187, -156, -171, -11, 90, 33, -9, -12, -17, 0, 0
1486725607.7940376, -158, -178, -11, 93, 35, -15, -9, -14, 0, 0
1486725607.7940574, -164, -181, -9, 85, 36, -9, -11, -24, 0, 0
1486725607.7940762, -174, -181, -11, 66, 10, -11, -12, -14, 0, 0
1486725607.794095, -183, -185, -9, 67, 30, -14, -17, -21, 0, 0
1486725607.794114, -179, -187, -9, 89, 42, -13, -12, -13, 0, 0
1486725607.794133, -163, -183, -10, 104, 45, -15, -15, -15, 0, 0
1486725607.7941558, -159, -185, -10, 84, 26, -12, -20, -22, 0, 0
1486725607.7941747, -187, -183, -10, 69, 21, -12, -9, -12, 0, 0
1486725607.7941933, -179, -179, -11, 70, 28, -9, -12, -6, 0, 0
1486725607.7945495, -178, -177, -10, 96, 33, -19, -12, -17, 0, 0
1486725607.7945862, -163, -178, -11, 99, 45, -1, -11, -19, 0, 0
1486725607.7946112, -177, -177, -9, 81, 12, -3, -12, -13, 0, 0
1486725607.7946324, -175, -173, -10, 70, 21, -7, -5, -11, 0, 0
1486725607.7946565, -180, -176, -11, 71, 17, -18, -10, -3, 0, 0
1486725607.7946763, -172, -170, -10, 94, 37, -13, -12, -13, 0, 0
1486725607.794698, -164, -176, -10, 102, 33, -12, -10, -14, 0, 0
1486725607.7947183, -173, -183, -10, 82, 14, -10, -13, -15, 0, 0
1486725607.7947378, -174, -174, -10, 72, 17, -12, -9, -12, 0, 0
1486725607.7947571, -182, -173, -11, 77, 21, -9, -11, -17, 0, 0
1486725607.794776, -174, -173, -11, 106, 38, -8, -8, -20, 0, 0
1486725607.7947946, -161, -171, -9, 104, 39, -14, -11, -19, 0, 0
1486725607.7948139, -161, -175, -11, 76, 23, -10, -9, -16, 0, 0
1486725607.7948325, -178, -172, -11, 64, 14, -14, -9, -7, 0, 0
1486725607.794851, -171, -169, -10, 72, 34, -16, -12, -13, 0, 0
1486725607.7948694, -167, -170, -11, 99, 43, -16, -13, -20, 0, 0
1486725607.7948883, -167, -177, -10, 91, 40, -13, -17, -19, 0, 0
1486725607.794907, -175, -175, -9, 75, 27, -9, -14, -14, 0, 0
1486725607.794926, -176, -168, -10, 53, 20, -14, -14, -9, 0, 0
1486725607.7949448, -174, -171, -11, 68, 31, -11, -16, -22, 0, 0
1486725607.7949634, -162, -174, -10, 96, 54, -12, -16, -16, 0, 0
1486725607.794982, -144, -179, -9, 110, 55, -12, -14, -9, 0, 0
1486725607.795, -164, -174, -10, 73, 13, -11, -14, -6, 0, 0
1486725607.7978342, -161, -139, -10, 32, 13, -14, -9, -7, 0, 0
1486725607.797905, -147, -125, -11, 49, 36, -8, -17, -18, 0, 0
1486725607.797931, -135, -117, -10, 50, 23, -19, -16, -18, 0, 0
1486725607.7979527, -120, -102, -9, 28, 16, -13, -17, -19, 0, 0
1486725607.7979727, -110, -71, -10, -21, -4, -12, -5, -12, 0, 0
1486725607.7980285, -110, -53, -10, -25, -4, -13, -4, -4, 0, 0
1486725607.7980492, -105, -38, -10, -23, 5, -12, -8, -22, 0, 0
1486725607.7980685, -76, -34, -10, -12, 5, -20, -5, -12, 0, 0
1486725607.7981067, -59, -10, -11, -34, -3, -14, -16, -14, 0, 0
1486725607.7981484, -42, 9, -10, -59, -11, -19, -19, -9, 0, 0
1486725607.7981944, -46, 27, -11, -65, -12, -18, -19, -12, 0, 0
1486725607.7982256, -31, 39, -10, -52, -12, -26, -17, -18, 0, 0
1486725607.798247, -5, 49, -11, -51, -11, -20, -14, -13, 0, 0
1486725607.7982664, -2, 57, -10, -73, -17, -12, -11, -12, 0, 0
1486725607.7982852, 4, 76, -10, -100, -32, -10, -10, -13, 0, 0
1486725607.798304, 15, 91, -11, -106, -28, -13, -8, -16, 0, 0
1486725607.7983227, -105, -38, -10, -23, 5, -12, -8, -21, 0, 0
1486725607.7983413, 30, 106, -10, -79, -13, -13, -9, -9, 0, 0
1486725607.7983603, 53, 114, -9, -95, -21, -11, -19, -11, 0, 0
1486725607.7983792, 40, 112, -10, -59, -11, -19, -19, -9, 0, 0
1486725607.7983983, 37, 106, -10, -103, -34, -18, -11, -17, 0, 0
1486725607.7984173, 45, 115, -9, -91, -27, -16, -15, -11, 0, 0
1486725607.7984364, 62, 107, -10, -82, -11, -20, -14, -13, 0, 0
1486725607.7984715, 53, 108, -10, -98, -30, -12, -15, -13, 0, 0
1486725607.7987168, 49, 108, -10, -105, -42, -10, -17, -18, 0, 0
1486725607.7987533, 40, 111, -9, -91, -28, -13, -8, -16, 0, 0
1486725607.798778, 58, 104, -10, -70, -20, -13, -10, -9, 0, 0
1486725607.798799, 66, 105, -11, -68, -17, -10, -13, -10, 0, 0
1486725607.7988193, 57, 105, -10, -89, -35, -11, -19, -11, 0, 0
1486725607.7988386, 46, 107, -10, -106, -43, -10, -8, -13, 0, 0
1486725607.7988575, 54, 110, -11, -93, -36, -14, -20, -22, 0, 0
1486725607.7988765, 63, 103, -10, -70, -29, -15, -15, -11, 0, 0
1486725607.7988951, 61, 104, -10, -68, -38, -11, -9, -13, 0, 0
1486725607.7989142, 54, 105, -10, -88, -52, -12, -14, -10, 0, 0
1486725607.7989333, 44, 101, -10, -98, -55, -10, -8, -18, 0, 0
1486725607.7989519, 56, 109, -9, -89, -46, -18, -9, -14, 0, 0
1486725607.7989712, 62, 109, -8, -68, -32, -16, -8, -8, 0, 0
1486725607.798995, 65, 104, -11, -76, -44, -17, -13, -11, 0, 0
1486725607.799014, 63, 108, -10, -99, -47, -9, -9, -10, 0, 0
1486725607.7990327, 51, 103, -10, -99, -49, -12, -17, -22, 0, 0
1486725607.7990515, 62, 108, -10, -83, -26, -10, -10, -12, 0, 0
1486725607.7990701, 61, 103, -9, -71, -35, -20, -14, -11, 0, 0
1486725607.7990956, 63, 104, -11, -84, -43, -15, -6, -9, 0, 0
1486725607.7991152, 59, 111, -10, -116, -57, -12, -14, -10, 0, 0
1486725607.7991343, 44, 104, -10, -117, -57, -11, -14, -13, 0, 0
1486725607.7991526, 41, 107, -11, -102, -48, -12, -15, -3, 0, 0
1486725607.7991838, 59, 115, -10, -86, -37, -16, -9, -8, 0, 0
1486725607.802716, 60, 112, -10, -90, -42, -13, -10, -7, 0, 0
1486725607.802786, 49, 102, -10, -108, -54, -7, -16, -10, 0, 0
1486725607.8028114, 43, 106, -9, -115, -47, -11, -13, -9, 0, 0
1486725607.8028328, 43, 104, -11, -95, -45, -12, -11, -11, 0, 0
1486725607.8028526, 54, 114, -11, -79, -37, -8, -16, -11, 0, 0
1486725607.8028717, 63, 107, -11, -95, -42, -10, -10, -11, 0, 0
1486725607.802891, 62, 111, -10, -107, -52, -17, -8, -12, 0, 0
1486725607.8029096, 42, 104, -10, -102, -42, -16, -9, -14, 0, 0
1486725607.802932, 52, 108, -10, -79, -31, -14, -9, -3, 0, 0
1486725607.8029516, 53, 101, -10, -66, -32, -16, -13, -15, 0, 0
1486725607.8029714, 49, 92, -9, -74, -38, -16, -18, -7, 0, 0
1486725607.802991, 54, 107, -10, -114, -62, -17, -14, -5, 0, 0
1486725607.80301, 67, 129, -10, -117, -50, -14, -14, -12, 0, 0
1486725607.8030305, 77, 124, -10, -90, -34, -15, -5, -7, 0, 0
1486725607.8030503, 91, 115, -10, -83, -35, -13, -5, -7, 0, 0
1486725607.8031, 114, 123, -10, -103, -42, -17, -5, -8, 0, 0
1486725607.8031197, 102, 121, -9, -111, -50, -13, -8, -14, 0, 0
1486725607.8031392, 98, 120, -11, -110, -43, -15, -12, -22, 0, 0
1486725607.8031588, 100, 113, -10, -92, -34, -19, -9, -12, 0, 0
1486725607.803182, 109, 114, -10, -84, -33, -8, -7, -14, 0, 0
1486725607.803201, 109, 121, -10, -112, -54, -14, -9, -1, 0, 0
1486725607.8032198, 108, 117, -10, -122, -61, -17, -6, -9, 0, 0
1486725607.803238, 108, 120, -10, -112, -48, -11, -6, -10, 0, 0
1486725607.8035173, 114, 121, -9, -79, -39, -12, -7, -11, 0, 0
1486725607.803554, 119, 112, -10, -90, -34, -11, -15, -12, 0, 0
1486725607.8035784, 121, 105, -9, -112, -52, -12, -18, -17, 0, 0
1486725607.803599, 107, 119, -10, -122, -47, -15, -20, -10, 0, 0
1486725607.803619, 98, 120, -11, -110, -43, -15, -12, -22, 0, 0
1486725607.803645, 121, 124, -9, -93, -48, -21, -10, -17, 0, 0
1486725607.8036647, 114, 114, -10, -100, -57, -14, -16, -11, 0, 0
1486725607.8036838, 130, 124, -10, -112, -54, -14, -9, -1, 0, 0
1486725607.8037026, 115, 120, -9, -126, -59, -16, -14, -16, 0, 0
1486725607.803721, 106, 117, -10, -104, -53, -21, -20, -12, 0, 0
1486725607.8037398, 126, 119, -10, -94, -39, -12, -7, -11, 0, 0
1486725607.8037586, 129, 121, -9, -96, -49, -12, -10, -15, 0, 0
1486725607.803787, 121, 123, -10, -119, -63, -8, -14, -11, 0, 0
1486725607.8038158, 104, 122, -9, -123, -61, -15, -20, -10, 0, 0
1486725607.8038447, 101, 114, -9, -96, -44, -17, -14, -12, 0, 0
1486725607.8038635, 121, 118, -9, -78, -44, -13, -18, -11, 0, 0
1486725607.803885, 127, 125, -11, -90, -49, -9, -15, -11, 0, 0
1486725607.803915, 110, 117, -10, -109, -62, -6, -15, -14, 0, 0
1486725607.8039336, 110, 119, -9, -113, -60, -20, -9, -17, 0, 0
1486725607.8039525, 107, 112, -10, -73, -43, -22, -13, -7, 0, 0
1486725607.8039708, 123, 110, -10, -83, -51, -19, -17, -12, 0, 0
1486725607.8062956, 117, 103, -9, -84, -48, -10, -9, -5, 0, 0
1486725607.8063328, 110, 116, -10, -107, -56, -12, -14, -18, 0, 0
1486725607.8063629, 106, 122, -8, -105, -55, -12, -16, -11, 0, 0
1486725607.8063848, 103, 114, -11, -77, -38, -13, -8, -16, 0, 0
1486725607.8064048, 111, 102, -9, -68, -41, -13, -18, -11, 0, 0
1486725607.806425, 114, 112, -10, -96, -48, -7, -15, -9, 0, 0
1486725607.8064444, 100, 117, -10, -112, -60, -16, -18, -12, 0, 0
1486725607.806463, 92, 115, -10, -116, -65, -20, -9, -17, 0, 0
1486725607.8064818, 99, 116, -10, -102, -44, -23, -17, -17, 0, 0
1486725607.8065007, 113, 109, -10, -79, -45, -16, -20, -6, 0, 0
1486725607.806519, 118, 108, -11, -89, -57, -16, -20, -10, 0, 0
1486725607.8065374, 105, 110, -11, -110, -61, -11, -20, -12, 0, 0
1486725607.806556, 98, 114, -10, -105, -63, -13, -8, -9, 0, 0
1486725607.8065743, 115, 114, -10, -85, -38, -13, -8, -16, 0, 0
1486725607.806593, 119, 114, -11, -84, -45, -13, -9, -18, 0, 0
1486725607.8066115, 116, 114, -11, -110, -67, -20, -20, -15, 0, 0
1486725607.8066301, 95, 107, -10, -123, -65, -12, -15, -12, 0, 0
1486725607.8066485, 114, 120, -10, -118, -56, -13, -10, -13, 0, 0
1486725607.8066676, 124, 110, -10, -100, -59, -15, -18, -14, 0, 0
1486725607.8066895, 120, 123, -10, -97, -57, -10, -13, -13, 0, 0
1486725607.8067095, 109, 102, -10, -112, -60, -14, -12, -16, 0, 0
1486725607.8067286, 108, 118, -10, -130, -75, -14, -15, -9, 0, 0
1486725607.8067474, 109, 119, -10, -116, -58, -12, -15, -10, 0, 0
1486725607.8073409, 105, 106, -9, -97, -48, -19, -11, -10, 0, 0
1486725607.8073964, 122, 117, -10, -102, -52, -14, -14, -11, 0, 0
1486725607.807421, 121, 120, -11, -118, -68, -8, -20, -15, 0, 0
1486725607.8074417, 116, 114, -10, -126, -67, -5, -14, -11, 0, 0
1486725607.807462, 94, 104, -10, -114, -69, -12, -14, -9, 0, 0
1486725607.8074813, 105, 119, -10, -93, -52, -14, -18, -14, 0, 0
1486725607.8075004, 107, 103, -10, -91, -54, -11, -9, -12, 0, 0
1486725607.8075192, 101, 113, -10, -121, -70, -10, -15, -7, 0, 0
1486725607.8075376, 98, 110, -10, -136, -70, -8, -15, -9, 0, 0
1486725607.8075564, 100, 109, -10, -103, -48, -13, -15, -10, 0, 0
1486725607.807575, 111, 112, -10, -90, -56, -22, -5, -14, 0, 0
1486725607.8075936, 113, 105, -11, -90, -48, -16, -11, -16, 0, 0
1486725607.8076117, 111, 120, -11, -118, -68, -8, -5, -9, 0, 0
1486725607.8076441, 99, 102, -10, -118, -63, -12, -13, -9, 0, 0
1486725607.8076763, 103, 106, -10, -98, -43, -15, -12, -7, 0, 0
1486725607.8076978, 111, 110, -10, -93, -52, -14, -10, -11, 0, 0
1486725607.8077362, 119, 105, -10, -83, -45, -14, -12, -17, 0, 0
1486725607.8077648, 98, 101, -11, -90, -49, -9, -16, -18, 0, 0
1486725607.8077838, 94, 95, -10, -136, -70, -8, -19, -3, 0, 0
1486725607.8078058, 92, 103, -10, -83, -41, -21, -13, -19, 0, 0
1486725607.8078344, 107, 92, -10, -69, -41, -18, -10, -17, 0, 0
1486725607.807853, 107, 95, -10, -90, -51, -16, -11, -16, 0, 0
1486725607.8078735, 109, 104, -11, -118, -63, -14, -14, -14, 0, 0
1486725607.808163, 106, 101, -11, -113, -50, -16, -10, -13, 0, 0
1486725607.8081996, 99, 97, -10, -98, -43, -15, -12, -7, 0, 0
1486725607.8082244, 107, 105, -11, -71, -46, -7, -10, -10, 0, 0
1486725607.8082452, 104, 92, -10, -79, -41, -8, -13, -12, 0, 0
1486725607.8082647, 105, 98, -9, -97, -49, -9, -16, -18, 0, 0
1486725607.8082838, 86, 101, -10, -101, -64, -11, -5, -13, 0, 0
1486725607.8083026, 96, 103, -11, -84, -37, -15, -6, -9, 0, 0
1486725607.8083212, 111, 105, -12, -77, -54, -18, -10, -17, 0, 0
1486725607.80834, 121, 102, -9, -97, -52, -16, -18, -17, 0, 0
1486725607.8083587, 97, 101, -11, -126, -72, -14, -10, -8, 0, 0
1486725607.808377, 101, 109, -10, -116, -61, -16, -11, -13, 0, 0
1486725607.8084066, 96, 91, -10, -83, -43, -17, -11, -17, 0, 0
1486725607.8084414, 111, 102, -10, -87, -48, -13, -7, -13, 0, 0
1486725607.8084745, 117, 94, -11, -90, -48, -15, -10, -12, 0, 0
1486725607.8085124, 106, 97, -10, -106, -64, -14, -4, -14, 0, 0
1486725607.8085315, 95, 107, -10, -119, -62, -15, -3, -12, 0, 0
1486725607.8085501, 96, 98, -11, -91, -53, -19, -11, -7, 0, 0
1486725607.8085778, 108, 102, -9, -89, -48, -18, -10, -13, 0, 0
1486725607.8085985, 106, 99, -11, -117, -44, -10, -7, -7, 0, 0
1486725607.8086178, 93, 90, -10, -113, -60, -22, -10, -8, 0, 0
1486725607.8086376, 93, 88, -10, -95, -42, -19, -9, -14, 0, 0
1486725607.8086584, 90, 88, -10, -73, -36, -20, -10, -13, 0, 0
1486725607.8086772, 112, 95, -10, -71, -28, -17, -11, -15, 0, 0
1486725607.8086987, 96, 84, -10, -88, -44, -9, -11, -21, 0, 0
1486725607.809419, 86, 93, -9, -99, -42, -6, -13, -8, 0, 0
1486725607.8095524, 96, 96, -10, -82, -40, -16, -16, -14, 0, 0
1486725607.8095782, 92, 96, -10, -61, -24, -14, -13, -16, 0, 0
1486725607.8096004, 105, 98, -9, -51, -32, -18, -17, -7, 0, 0
1486725607.8096206, 96, 95, -10, -103, -48, -10, -7, -7, 0, 0
1486725607.8096402, 87, 96, -9, -105, -50, -16, -13, -21, 0, 0
1486725607.8096595, 77, 99, -10, -92, -50, -13, -10, -14, 0, 0
1486725607.8096783, 98, 103, -11, -77, -60, -19, -10, -13, 0, 0
1486725607.8096974, 94, 92, -10, -78, -34, -11, -13, -8, 0, 0
1486725607.809716, 106, 81, -11, -93, -47, -4, -9, -4, 0, 0
1486725607.8097346, 92, 88, -11, -114, -63, -8, -5, -8, 0, 0
1486725607.809755, 101, 90, -10, -91, -44, -6, -12, -14, 0, 0
1486725607.809774, 101, 88, -10, -83, -43, -11, -11, -15, 0, 0
1486725607.8097925, 115, 80, -9, -62, -44, -9, -10, -10, 0, 0
1486725607.8098109, 104, 87, -11, -112, -80, -17, -10, -7, 0, 0
1486725607.80983, 65, 76, -10, -79, -47, -12, -6, -19, 0, 0
1486725607.8098485, 95, 91, -10, -83, -38, -13, -10, -14, 0, 0
1486725607.8098674, 112, 87, -10, -64, -26, -13, -13, -13, 0, 0
1486725607.8098862, 104, 79, -10, -84, -48, -5, -15, -16, 0, 0
1486725607.809905, 103, 89, -11, -108, -65, -7, -15, -17, 0, 0
1486725607.8099241, 85, 78, -10, -90, -43, -8, -9, -17, 0, 0
1486725607.8099425, 98, 83, -10, -89, -45, -8, -7, -10, 0, 0
1486725607.8099642, 110, 81, -9, -72, -42, -19, -14, -19, 0, 0
1486725607.8106544, 115, 80, -9, -62, -44, -9, -10, -10, 0, 0
1486725607.810726, 56, 41, -11, -23, -16, -18, -11, -15, 0, 0
1486725607.8107603, 51, 39, -11, -46, -39, -16, -7, -13, 0, 0
1486725607.8107827, 44, 46, -10, -61, -24, -14, -5, -9, 0, 0
1486725607.815395, 39, 47, -11, -46, -25, -12, -4, -19, 0, 0
1486725607.8162384, 54, 48, -9, -31, -17, -11, -15, -19, 0, 0
1486725607.8175635, 57, 44, -11, -32, -18, -15, -13, -11, 0, 0
1486725607.8303623, 55, 47, -11, -54, -34, -12, -10, -9, 0, 0
1486725607.831349, 51, 50, -11, -61, -36, -15, -13, -15, 0, 0
1486725607.834744, 54, 51, -11, -42, -15, -18, -15, -3, 0, 0
1486725607.845384, 58, 52, -10, -26, -17, -18, -13, -18, 0, 0
1486725607.8463545, 56, 41, -10, -38, -23, -7, -6, -18, 0, 0
1486725607.8467922, 50, 47, -10, -61, -35, -11, -7, -13, 0, 0
1486725607.8528855, 44, 50, -10, -59, -29, -10, -8, -16, 0, 0
1486725607.8538544, 47, 48, -10, -46, -33, -16, -18, -19, 0, 0
1486725607.854304, 55, 50, -10, -33, -15, -15, -17, -18, 0, 0
1486725607.8684514, 58, 45, -10, -44, -28, -21, -17, -9, 0, 0
1486725607.86938, 46, 49, -9, -68, -32, -11, -12, -12, 0, 0
1486725607.8723044, 37, 52, -9, -67, -36, -23, -22, -16, 0, 0
1486725607.88288, 40, 44, -10, -45, -18, -15, -13, -11, 0, 0
1486725607.883848, 50, 39, -9, -30, -15, -20, -13, -16, 0, 0
1486725607.8850543, 50, 35, -10, -38, -31, -12, -9, -8, 0, 0
1486725607.89039, 47, 35, -10, -58, -34, -10, -11, -20, 0, 0
1486725607.8912637, 34, 43, -11, -57, -32, -16, -10, -17, 0, 0
1486725607.891781, 47, 36, -11, -27, -7, -13, -19, -21, 0, 0
1486725607.8934572, 54, 50, -10, -33, -15, -15, -17, -18, 0, 0
1486725607.9052854, 50, 37, -11, -35, -20, -13, -13, -9, 0, 0
1486725607.9063826, 58, 40, -10, -53, -21, -15, -19, -5, 0, 0
1486725607.907942, 38, 44, -9, -67, -36, -23, -22, -16, 0, 0
1486725607.920385, 49, 38, -10, -17, -5, -11, -13, -11, 0, 0
1486725607.9213264, 63, 37, -10, -3, -8, -15, -12, -9, 0, 0
1486725607.9218938, 55, 34, -10, -21, -31, -12, -9, -8, 0, 0
1486725607.9278958, 44, 34, -9, -42, -20, -21, -18, -14, 0, 0
1486725607.9288716, 33, 39, -10, -35, -8, -7, -9, -10, 0, 0
1486725607.9307034, 43, 38, -11, -12, -7, -13, -19, -21, 0, 0
1486725607.9429376, 54, 38, -10, -8, 0, -15, -14, -9, 0, 0
1486725607.9438705, 53, 35, -11, -30, -7, -7, -13, -12, 0, 0
1486725607.947564, 51, 42, -10, -48, -28, -14, -19, -5, 0, 0
1486725607.9579954, 40, 47, -11, -41, -24, -25, -10, -13, 0, 0
1486725607.9588075, 52, 40, -10, -21, -6, -26, -21, -15, 0, 0
1486725607.9624383, 48, 34, -10, -14, -7, -19, -11, -16, 0, 0
1486725607.9654129, 53, 41, -11, -35, -36, -19, -14, -15, 0, 0
1486725607.9663594, 41, 39, -10, -46, -25, -18, -10, -14, 0, 0
1486725607.968474, 40, 34, -9, -32, -16, -19, -11, -6, 0, 0
1486725607.9804072, 41, 31, -9, -13, -5, -24, -9, -16, 0, 0
1486725607.981311, 52, 40, -10, -23, -19, -18, -11, -5, 0, 0
1486725607.981663, 49, 39, -10, -41, -21, -15, -13, -11, 0, 0
1486725607.9953954, 43, 43, -10, -55, -24, -9, -9, -13, 0, 0
1486725607.9963374, 34, 43, -9, -38, -21, -28, -18, -9, 0, 0
1486725607.998189, 54, 40, -10, -23, -16, -26, -21, -15, 0, 0
1486725608.002935, 62, 42, -10, -30, -22, -23, -20, -8, 0, 0
1486725608.003851, 53, 38, -10, -51, -36, -18, -10, -17, 0, 0
1486725608.0048928, 42, 42, -10, -53, -35, -18, -10, -14, 0, 0
1486725608.01793, 41, 32, -10, -28, -18, -20, -10, -17, 0, 0
1486725608.0188522, 48, 32, -10, -9, -1, -18, -11, -5, 0, 0
1486725608.022228, 51, 33, -11, -16, -7, -16, -11, -5, 0, 0
1486725608.0329165, 44, 35, -10, -31, -19, -15, -9, -8, 0, 0
1486725608.0338888, 31, 30, -11, -34, -13, -24, -14, -13, 0, 0
1486725608.0349205, 42, 31, -10, -15, -249, -28, -18, -9, 0, 0
1486725608.0403926, 46, 32, -10, 0, 0, -20, -3, -9, 0, 0
1486725608.0413325, 52, 33, -10, -9, -7, -16, -14, -8, 0, 0
1486725608.043381, 46, 33, -9, -28, -23, -14, -10, -17, 0, 0
1486725608.0555027, 39, 25, -11, -29, -16, -16, -10, -17, 0, 0
1486725608.0562613, 40, 28, -10, -6, 1, -13, -10, -12, 0, 0
1486725608.0579302, 42, 27, -10, 5, 7, -19, -13, -5, 0, 0
1486725608.0704062, 48, 25, -10, -8, -4, -17, -12, -10, 0, 0
1486725608.0713778, 41, 27, -10, -35, -19, -14, -21, -19, 0, 0
1486725608.0726142, 33, 25, -10, -33, -17, -20, -13, -13, 0, 0
1486725608.077929, 40, 26, -10, -14, -1, -18, -12, -10, 0, 0
1486725608.0788727, 55, 28, -11, -6, -6, -17, -6, -6, 0, 0
1486725608.079499, 40, 23, -10, -21, -13, -21, -18, -8, 0, 0
1486725608.0929549, 42, 26, -10, -41, -20, -13, -19, -11, 0, 0
1486725608.0938919, 27, 29, -10, -34, -19, -19, -16, -10, 0, 0
1486725608.095836, 33, 24, -11, -13, -4, -19, -13, -9, 0, 0
1486725608.1081705, 52, 26, -9, -7, -15, -23, -13, -5, 0, 0
1486725608.109474, 42, 27, -11, -25, -16, -23, -14, -8, 0, 0
1486725608.1102853, 39, 29, -11, -42, -23, -13, -12, -10, 0, 0
1486725608.1103635, 22, 29, -10, -33, -17, -20, -13, -8, 0, 0
1486725608.115412, 36, 24, -10, -16, 2, -20, -14, -12, 0, 0
1486725608.1163352, 46, 26, -10, -13, -7, -18, -14, -11, 0, 0
1486725608.117562, 57, 29, -10, -21, -13, -21, -18, -8, 0, 0
1486725608.1306074, 38, 30, -10, -46, -11, -4, -15, -17, 0, 0
1486725608.1313703, 42, 31, -10, -32, -7, -11, -6, -9, 0, 0
1486725608.134111, 38, 22, -10, -13, -4, -19, -13, -9, 0, 0
1486725608.1504056, 52, 30, -10, -16, -4, -18, -16, -9, 0, 0
1486725608.1529093, 48, 23, -10, -31, -26, -17, -17, -5, 0, 0
1486725608.1536717, 34, 26, -10, -47, -18, -13, -12, -10, 0, 0
1486725608.154336, 37, 28, -10, -36, -12, -19, -12, -14, 0, 0
1486725608.1548758, 43, 27, -10, -11, -5, -22, -13, -9, 0, 0
1486725608.161033, 46, 23, -10, -13, -7, -18, -14, -11, 0, 0
1486725608.167986, 42, 24, -11, -33, -19, -13, -12, -9, 0, 0
1486725608.1687698, 38, 25, -11, -44, -10, -6, -6, -1, 0, 0
1486725608.1708777, 28, 22, -10, -28, -3, -11, -6, -9, 0, 0
1486725608.1838365, 43, 23, -11, -11, 1, -19, -11, -4, 0, 0
1486725608.1884208, 49, 24, -11, -17, -4, -23, -13, -5, 0, 0
1486725608.1884933, 46, 24, -11, -36, -14, -10, -17, -5, 0, 0
1486725608.1908977, 18, 21, -11, -39, -23, -13, -7, -12, 0, 0
1486725608.1935544, 28, 21, -11, -21, -9, -15, -5, -15, 0, 0
1486725608.1936605, 41, 21, -10, -4, 1, -6, -10, -9, 0, 0
1486725608.2054155, 45, 16, -9, -9, -5, -15, -22, -12, 0, 0
1486725608.206508, 40, 25, -10, -37, -21, -16, -16, -5, 0, 0
1486725608.2108724, 27, 22, -12, -35, -16, -17, -12, -10, 0, 0
1486725608.2204506, 26, 18, -11, -20, -1, -17, -13, -11, 0, 0
1486725608.221376, 33, 19, -10, -8, -7, -16, -14, -15, 0, 0
1486725608.2216969, 43, 19, -10, -18, -4, -10, -13, -9, 0, 0
1486725608.2279172, 28, 18, -10, -35, -21, -13, -14, -6, 0, 0
1486725608.2289011, 28, 23, -10, -35, -21, -14, -13, -14, 0, 0
1486725608.2296662, 21, 19, -10, -15, -10, -21, -16, -7, 0, 0
1486725608.2428663, 37, 18, -10, -6, -4, -17, -11, -16, 0, 0
1486725608.2439027, 37, 17, -11, -17, -15, -19, -17, -5, 0, 0
1486725608.2462451, 21, 12, -11, -32, -12, -13, -13, -5, 0, 0
1486725608.2631488, 8, 11, -11, -36, -11, -16, -13, -10, 0, 0
1486725608.2654185, 20, 14, -11, -18, 0, -19, -10, -17, 0, 0
1486725608.2662725, 32, 17, -10, -12, 3, -15, -12, -13, 0, 0
1486725608.2668223, 31, 15, -10, -30, -17, -9, -15, -9, 0, 0
1486725608.2689254, 26, 17, -10, -46, -24, -12, -11, -9, 0, 0
1486725608.2746766, 25, 21, -10, -45, -22, -9, -12, -11, 0, 0
1486725608.2804446, 20, 16, -11, -26, -8, -15, -8, -9, 0, 0
1486725608.2813835, 32, 16, -9, -18, -19, -16, -12, -3, 0, 0
1486725608.2851887, 31, 13, -10, -34, -19, -19, -17, -5, 0, 0
1486725608.2953756, 18, 12, -12, -43, -22, -17, -16, -13, 0, 0
1486725608.295671, 7, 19, -10, -38, -15, -18, -9, -14, 0, 0
1486725608.297247, 15, 9, -10, -13, 0, -16, -10, -17, 0, 0
1486725608.3029263, 18, 9, -12, -7, -3, -7, -7, -12, 0, 0
1486725608.3038607, 25, 5, -10, -23, -12, -4, -2, -9, 0, 0
1486725608.3056972, 7, 14, -11, -38, -19, -7, -9, -9, 0, 0
1486725608.3179631, 9, 15, -12, -29, -19, -18, -14, -9, 0, 0
1486725608.318879, 23, 13, -10, -10, -5, -18, -14, -11, 0, 0
1486725608.3203197, 34, 10, -10, -15, -7, -14, -16, -3, 0, 0
1486725608.3328125, 23, 13, -9, -33, -24, -18, -9, -3, 0, 0
1486725608.3339047, 12, 10, -10, -44, -13, -7, -10, -18, 0, 0
1486725608.3343995, 15, 17, -11, -29, -10, -12, -10, -1, 0, 0
1486725608.340416, 31, 15, -9, 0, 11, -16, -13, -15, 0, 0
1486725608.3413098, 31, 11, -10, -2, -1, -12, -12, -7, 0, 0
1486725608.3417757, 17, 11, -11, -24, -14, -12, -17, -11, 0, 0
1486725608.3437183, 16, 14, -11, -38, -19, -7, -9, -9, 0, 0
1486725608.355493, 18, 20, -10, -29, -14, -17, -10, -16, 0, 0
1486725608.3564115, 36, 22, -9, -13, -6, -14, -12, -7, 0, 0
1486725608.3600318, 32, 18, -11, -13, -7, -14, -16, -14, 0, 0
1486725608.370454, 22, 8, -10, -31, -15, -10, -15, -21, 0, 0
1486725608.371367, 14, 11, -10, -34, -21, -12, -16, -14, 0, 0
1486725608.3741167, 17, 15, -9, -16, -8, -12, -10, -1, 0, 0
1486725608.3779466, 25, 6, -11, 0, 8, -7, -14, -18, 0, 0
1486725608.3788748, 30, 6, -9, -9, -9, -9, -12, -11, 0, 0
1486725608.3821466, 19, 5, -11, -30, -16, -2, -10, -11, 0, 0
1486725608.3930945, 6, 14, -11, -33, -16, -16, -18, -13, 0, 0
1486725608.3938496, 17, 13, -11, -13, -5, -20, -14, -9, 0, 0
1486725608.3947487, 28, 12, -11, -13, -6, -14, -12, -7, 0, 0
1486725608.4079378, 27, 8, -10, -4, -7, -21, -13, -17, 0, 0
1486725608.4088504, 14, 6, -9, -31, -21, -13, -6, -9, 0, 0
1486725608.414638, 3, 9, -10, -31, -21, -12, -16, -14, 0, 0
1486725608.4154868, 6, 11, -10, -14, -13, -21, -8, -18, 0, 0
1486725608.4164002, 19, 8, -11, -3, 0, -20, -13, -13, 0, 0
1486725608.4203537, 15, 3, -10, -10, -9, -9, -12, -11, 0, 0
1486725608.4306095, 10, 2, -10, -37, -34, -13, -6, -13, 0, 0
1486725608.4314024, 17, 22, -11, -37, -18, -13, -6, -10, 0, 0
1486725608.4362912, 17, 19, -10, -22, -12, -13, -3, -9, 0, 0
1486725608.4454374, 35, 20, -10, -18, -16, -17, -5, -8, 0, 0
1486725608.4463978, 28, 21, -11, -30, -27, -13, -6, -11, 0, 0
1486725608.4479659, 21, 25, -10, -51, -20, -4, -7, -9, 0, 0
1486725608.4529352, 11, 21, -10, -44, -22, -8, -9, -15, 0, 0
1486725608.45386, 28, 19, -10, -19, -10, -14, -12, -16, 0, 0
1486725608.4550705, 35, 17, -10, -13, -12, -14, -14, -11, 0, 0
1486725608.4679434, 30, 13, -10, -26, -15, -8, -7, -12, 0, 0
1486725608.468841, 18, 17, -11, -46, -34, -15, -6, -3, 0, 0
1486725608.4714398, 10, 25, -9, -41, -22, -10, -6, -10, 0, 0
1486725608.482987, 16, 23, -10, -21, -6, -16, -12, -16, 0, 0
1486725608.4839206, 28, 21, -10, -13, -6, -17, -10, -6, 0, 0
1486725608.4865155, 25, 19, -11, -31, -13, -9, -10, -16, 0, 0
1486725608.490433, 11, 26, -10, -49, -28, -9, -9, -18, 0, 0
1486725608.4914238, 10, 29, -11, -38, -22, -19, -7, -19, 0, 0
1486725608.4922137, 13, 23, -10, -12, -15, -17, -7, -18, 0, 0
1486725608.5053937, 20, 12, -9, -9, -10, -18, -7, -11, 0, 0
1486725608.50639, 17, 2, -10, -22, -34, -13, -11, -9, 0, 0
1486725608.5080812, 1, -1, -11, -31, -20, -15, -6, -3, 0, 0
1486725608.5204453, 7, 9, -11, -23, -11, -10, -4, -11, 0, 0
1486725608.5208383, 7, 6, -11, 1, -6, -14, -9, -13, 0, 0
1486725608.5225332, 20, 7, -11, -6, -5, -11, -10, -6, 0, 0
1486725608.527992, 10, 4, -10, -24, -21, -12, -12, -13, 0, 0
1486725608.5288484, 10, 14, -10, -48, -27, -22, -15, -17, 0, 0
1486725608.5308924, 9, 17, -11, -32, -17, -14, -11, -19, 0, 0
1486725608.5439541, 20, 18, -10, -14, -3, -18, -10, -9, 0, 0
1486725608.5445552, 21, 10, -10, -11, -11, -19, -11, -11, 0, 0
1486725608.54463, 12, 14, -11, -35, -18, -15, -13, -18, 0, 0
1486725608.557883, 9, 16, -11, -49, -27, -19, -15, -16, 0, 0
1486725608.5589015, 10, 13, -11, -27, -14, -19, -14, -20, 0, 0
1486725608.562859, 18, 12, -10, -20, -13, -13, -9, -13, 0, 0
1486725608.5653925, 29, 15, -10, -28, -21, -12, -17, -14, 0, 0
1486725608.565999, 22, 14, -10, -45, -28, -8, -16, -15, 0, 0
1486725608.566815, 11, 17, -11, -47, -29, -18, -21, -20, 0, 0
1486725608.5686538, 13, 17, -11, -32, -17, -14, -11, -14, 0, 0
1486725608.5803585, 10, 12, -11, -13, -4, -13, -9, -14, 0, 0
1486725608.5811343, 18, 11, -10, -17, -6, -13, -15, -9, 0, 0
1486725608.5847108, 3, 15, -11, -35, -18, -15, -13, -18, 0, 0
1486725608.5964267, -10, 14, -10, -44, -13, -11, -9, -12, 0, 0
1486725608.601304, 1, 14, -12, -27, -1, -9, -15, -13, 0, 0
1486725608.6013794, 12, 15, -9, -12, -13, -13, -9, -13, 0, 0
1486725608.6028788, 9, 10, -10, -22, -10, -11, -19, -17, 0, 0
1486725608.603353, 4, 19, -10, -44, -25, -18, -8, -10, 0, 0
1486725608.6066496, 3, 19, -11, -34, -29, -18, -21, -20, 0, 0
1486725608.6181993, 3, 11, -10, -14, -3, -9, -2, -11, 0, 0
1486725608.6187105, 24, 13, -10, -1, 6, -15, -18, -17, 0, 0
1486725608.6218243, 17, 11, -10, -18, -9, -13, -15, -9, 0, 0
1486725608.6330059, 13, 19, -10, -40, -18, -14, -16, -23, 0, 0
1486725608.6339345, 10, 15, -10, -33, -18, -8, -13, -9, 0, 0
1486725608.637975, 32, 20, -10, -14, -8, -8, -15, -13, 0, 0
1486725608.6404088, 28, 17, -10, -1, -6, -17, -13, -14, 0, 0
1486725608.6415145, 20, 14, -10, -17, -21, -13, -15, -15, 0, 0
1486725608.6426153, 10, 8, -11, -28, -25, -9, -8, -10, 0, 0
1486725608.6554296, 2, 11, -11, -26, -13, -16, -17, -18, 0, 0
1486725608.6564837, 16, 15, -10, -10, -15, -13, -13, -15, 0, 0
1486725608.6571393, 19, 19, -10, -8, -14, -10, -12, -18, 0, 0
1486725608.6705334, 24, 15, -9, -27, -31, -17, -18, -17, 0, 0
1486725608.6714683, 12, 15, -9, -39, -26, -9, -11, -16, 0, 0
1486725608.672912, 10, 7, -10, -30, -19, -9, -11, -12, 0, 0
1486725608.6789982, 15, 13, -9, -7, -11, -18, -15, -18, 0, 0
1486725608.6792839, 20, 10, -11, -4, -6, -13, -12, -14, 0, 0
1486725608.679321, 19, 13, -9, -23, -27, -13, -15, -15, 0, 0
1486725608.6929142, 11, 17, -11, -37, -24, -14, -12, -18, 0, 0
1486725608.6936212, 8, 16, -11, -21, -21, -12, -11, -7, 0, 0
1486725608.6941886, 12, 10, -10, -4, -5, -13, -13, -15, 0, 0
1486725608.7080154, 22, 8, -10, -9, -18, -16, -13, -15, 0, 0
1486725608.7089653, 19, 15, -9, -34, -27, -15, -16, -4, 0, 0
1486725608.7101655, 18, 17, -9, -45, -15, -11, -12, -16, 0, 0
1486725608.715494, 11, 11, -11, -27, -20, -16, -8, -11, 0, 0
1486725608.7164693, 13, 13, -10, -5, -3, -17, -13, -14, 0, 0
1486725608.7209823, 21, 13, -10, -7, -5, -11, -15, -14, 0, 0
1486725608.73048, 22, 14, -9, -27, -14, -16, -10, -10, 0, 0
1486725608.7314544, 4, 14, -10, -37, -25, -12, -15, -8, 0, 0
1486725608.7321339, 11, 15, -10, -18, -6, -12, -8, -9, 0, 0
1486725608.7454767, 9, 14, -10, 0, -1, -15, -12, -10, 0, 0
1486725608.7465005, 21, 14, -11, -7, -6, -18, -17, -9, 0, 0
1486725608.7476764, 4, 18, -10, -35, -26, -15, -16, -4, 0, 0
1486725608.7540247, 6, 18, -10, -37, -18, -14, -12, -17, 0, 0
1486725608.754096, 8, 14, -11, -16, -2, -7, -9, -6, 0, 0
1486725608.7546217, 21, 15, -10, -5, 3, -14, -13, -14, 0, 0
1486725608.7679253, 28, 12, -10, -14, -2, -10, -7, -5, 0, 0
1486725608.7689974, 14, 15, -10, -37, -21, -13, -11, -4, 0, 0
1486725608.771038, 19, 17, -11, -34, -17, -15, -10, -8, 0, 0
1486725608.7840085, 7, 17, -11, -4, -2, -17, -16, -21, 0, 0
1486725608.7842913, 19, 12, -10, 1, -2, -16, -16, -16, 0, 0
1486725608.7843287, 20, 14, -10, -6, -10, -12, -15, -3, 0, 0
1486725608.7906117, 17, 13, -9, -27, -9, -16, -13, -14, 0, 0
1486725608.7910829, 8, 22, -10, -25, -14, -16, -11, -9, 0, 0
1486725608.7921686, 13, 18, -10, -11, -6, -20, -16, -18, 0, 0
1486725608.7947984, 21, 15, -10, -5, 3, -14, -9, -7, 0, 0
1486725608.8054624, 16, 10, -9, -21, -9, -14, -20, -9, 0, 0
1486725608.8058405, 13, 15, -10, -56, -14, -14, -11, -8, 0, 0
1486725608.808879, -17, 15, -11, -34, -17, -15, -10, -10, 0, 0
1486725608.8205686, -10, -7, -10, 12, 16, -16, -12, -13, 0, 0
1486725608.8215368, -11, -19, -9, 32, 26, -9, -15, -5, 0, 0
1486725608.821937, -31, -41, -10, -6, -10, -12, -15, -3, 0, 0
1486725608.8280594, -54, -48, -10, 24, 23, -14, -18, -15, 0, 0
1486725608.8290038, -87, -64, -10, 44, 47, -11, -18, -20, 0, 0
1486725608.8305616, -96, -89, -11, 85, -6, -20, -16, -18, 0, 0
1486725608.8429747, -106, -102, -9, 110, 82, -15, -14, -25, 0, 0
1486725608.8439784, -127, -119, -9, 111, 83, -12, -17, -19, 0, 0
1486725608.847229, -160, -137, -10, 120, 97, -14, -11, -8, 0, 0
1486725608.8579943, -175, -155, -11, 147, 115, -12, -11, -16, 0, 0
1486725608.8590062, -184, -178, -10, 184, 135, -17, -14, -18, 0, 0
1486725608.860569, -175, -188, -10, 197, 132, -15, -11, -5, 0, 0
1486725608.8654513, -188, -197, -11, 186, 129, -14, -7, -14, 0, 0
1486725608.8665402, -203, -205, -11, 179, 126, -13, -11, -17, 0, 0
1486725608.8677166, -204, -209, -11, 195, 127, -14, -13, -16, 0, 0
1486725608.880503, -184, -202, -10, 210, 132, -19, -17, -16, 0, 0
1486725608.881536, -179, -210, -11, 205, 132, -19, -11, -5, 0, 0
1486725608.8825243, -174, -208, -10, 184, 118, -12, -17, -19, 0, 0
1486725608.8956804, -186, -200, -11, 170, 108, -20, -9, -17, 0, 0
1486725608.8959963, -183, -204, -9, 189, 120, -16, -17, -21, 0, 0
1486725608.8977787, -167, -208, -11, 206, 129, -18, -14, -18, 0, 0
1486725608.9030354, -167, -206, -12, 192, 122, -11, -8, -4, 0, 0
1486725608.9039772, -171, -204, -11, 171, 106, -10, -10, -22, 0, 0
1486725608.905169, -175, -203, -10, 161, 98, -15, -14, -17, 0, 0
1486725608.9181082, -176, -205, -10, 174, 108, -24, -13, -10, 0, 0
1486725608.9187572, -157, -200, -11, 185, 112, -18, -14, -18, 0, 0
1486725608.9211156, -145, -201, -11, 179, 108, -12, -13, -13, 0, 0
1486725608.932971, -153, -194, -12, 157, 102, -17, -14, -8, 0, 0
1486725608.9341922, -158, -192, -11, 157, 105, -14, -15, -18, 0, 0
1486725608.9363508, -152, -198, -9, 178, 126, -9, -10, -8, 0, 0
1486725608.9403834, -142, -197, -11, 187, 109, -15, -15, -15, 0, 0
1486725608.941185, -139, -200, -10, 173, 106, -13, -17, -20, 0, 0
1486725608.941503, -144, -195, -11, 154, 96, -2, -9, -11, 0, 0
1486725608.9554172, -151, -195, -10, 154, 103, -7, -9, -16, 0, 0
1486725608.956516, -150, -198, -10, 174, 103, -12, -7, -2, 0, 0
1486725608.957552, -141, -195, -10, 186, 107, -13, -14, -18, 0, 0
1486725608.9706893, -137, -199, -10, 170, 92, -11, -10, -17, 0, 0
1486725608.9713078, -147, -197, -9, 149, 82, -6, -4, -17, 0, 0
1486725608.9722095, -158, -195, -10, 148, 86, -6, -7, -12, 0, 0
1486725608.9781952, -150, -190, -9, 166, 104, -10, -6, -17, 0, 0
1486725608.9787703, -141, -190, -11, 177, 98, -13, -10, -15, 0, 0
1486725608.9806416, -138, -192, -10, 162, 97, -8, -8, -15, 0, 0
1486725608.9930866, -141, -197, -10, 142, 87, -14, -17, -18, 0, 0
1486725608.9940536, -147, -189, -11, 150, 93, -15, -10, -14, 0, 0
1486725608.9947045, -136, -187, -10, 168, 103, -12, -7, -2, 0, 0
1486725609.007953, -123, -185, -10, 169, 98, -17, -10, -18, 0, 0
1486725609.0082412, -130, -186, -11, 150, 86, -1, -10, -13, 0, 0
1486725609.0101287, -141, -182, -10, 131, 76, -10, -4, -17, 0, 0
1486725609.0154748, -142, -184, -10, 139, 91, -14, -17, -19, 0, 0
1486725609.0164907, -131, -187, -10, 165, 97, -20, -10, -11, 0, 0
1486725609.0185723, -136, -193, -11, 172, 95, -12, -11, -12, 0, 0
1486725609.0304496, -120, -192, -10, 156, 89, -9, -11, -21, 0, 0
1486725609.0307631, -146, -190, -11, 140, 80, -16, -13, -13, 0, 0
1486725609.0329065, -135, -184, -10, 153, 84, -21, -7, -15, 0, 0
1486725609.0468135, -137, -188, -11, 176, 91, -18, -10, -14, 0, 0
1486725609.0468833, -115, -183, -9, 172, 94, -15, -14, -22, 0, 0
1486725609.0471883, -126, -180, -9, 149, 74, -18, -21, -14, 0, 0
1486725609.0482743, -141, -182, -10, 131, 76, -10, -20, -12, 0, 0
1486725609.0536075, -115, -179, -11, 165, 92, -10, -13, -17, 0, 0
1486725609.0684896, -101, -176, -11, 159, 91, -12, -10, -9, 0, 0
1486725609.0696719, -117, -176, -10, 134, 74, -11, -7, -10, 0, 0
1486725609.0697436, -123, -174, -10, 128, 79, -12, -18, -20, 0, 0
1486725609.0716388, -127, -178, -11, 148, 90, -13, -13, -13, 0, 0
1486725609.0830252, -112, -175, -10, 165, 97, -14, -16, -21, 0, 0
1486725609.0840406, -116, -176, -10, 159, 89, -11, -11, -12, 0, 0
1486725609.084316, -117, -175, -9, 172, 94, -15, -14, -22, 0, 0
1486725609.0913055, -120, -174, -10, 133, 83, -11, -11, -12, 0, 0
1486725609.0922854, -127, -174, -10, 154, 93, -8, -12, -23, 0, 0
1486725609.0923555, -115, -176, -10, 164, 92, -10, -13, -17, 0, 0
1486725609.1054595, -122, -176, -10, 160, 85, -15, -8, -10, 0, 0
1486725609.106508, -121, -174, -11, 135, 75, -16, -18, -17, 0, 0
1486725609.1083543, -127, -177, -10, 129, 74, -12, -16, -22, 0, 0
1486725609.1204376, -118, -176, -11, 147, 92, -19, -12, -18, 0, 0
1486725609.1215267, -107, -172, -11, 160, 88, -21, -14, -19, 0, 0
1486725609.1228175, -106, -174, -11, 149, 79, -11, -11, -12, 0, 0
1486725609.1281302, -112, -173, -11, 133, 77, -5, -9, -15, 0, 0
1486725609.1289794, -113, -165, -11, 133, 75, -13, -6, -8, 0, 0
1486725609.1303103, -106, -169, -11, 145, 84, -12, -12, -23, 0, 0
1486725609.1437128, -104, -166, -11, 158, 86, -16, -9, -11, 0, 0
1486725609.1470234, -114, -169, -10, 138, 74, -16, -9, -8, 0, 0
1486725609.147094, -125, -162, -11, 122, 65, -19, -11, -16, 0, 0
1486725609.158044, -127, -162, -10, 125, 66, -20, -16, -20, 0, 0
1486725609.158985, -122, -167, -11, 144, 78, -18, -16, -18, 0, 0
1486725609.1607752, -106, -169, -11, 151, 90, -15, -8, -5, 0, 0
1486725609.1654334, -108, -169, -11, 137, 77, -11, -16, -9, 0, 0
1486725609.1664267, -127, -164, -10, 122, 74, -9, -11, -6, 0, 0
1486725609.1675785, -138, -169, -10, 133, 72, -11, -7, -7, 0, 0
1486725609.1804683, -124, -169, -10, 150, 84, -21, -15, -17, 0, 0
1486725609.1814125, -115, -168, -10, 149, 87, -14, -18, -8, 0, 0
1486725609.1828208, -114, -169, -11, 133, 75, -16, -9, -8, 0, 0
1486725609.1955051, -111, -162, -11, 113, 63, -11, -7, -10, 0, 0
1486725609.1964285, -114, -165, -10, 119, 65, -12, -8, -9, 0, 0
1486725609.1990464, -108, -158, -10, 132, 79, -9, -16, -18, 0, 0
1486725609.203067, -106, -165, -10, 136, 69, -20, -14, -21, 0, 0
1486725609.2038293, -104, -164, -10, 112, 55, -9, -3, -11, 0, 0
1486725609.2045984, -110, -160, -11, 94, 52, -14, -12, -6, 0, 0
1486725609.218079, -120, -155, -10, 107, 68, -9, -1, -13, 0, 0
1486725609.2189195, -117, -157, -9, 133, 74, -11, -14, -13, 0, 0
1486725609.219783, -108, -162, -11, 137, 77, -16, -17, -15, 0, 0
1486725609.2329242, -104, -154, -11, 116, 65, -5, -17, -16, 0, 0
1486725609.2338748, -107, -153, -10, 104, 62, -6, -15, -15, 0, 0
1486725609.237643, -107, -155, -11, 122, 67, -12, -8, -9, 0, 0
1486725609.2404478, -109, -155, -10, 137, 80, -15, -23, -7, 0, 0
1486725609.2414277, -86, -154, -11, 131, 73, -17, -15, -12, 0, 0
1486725609.242821, -101, -154, -11, 111, 52, -11, -12, -14, 0, 0
1486725609.256425, -104, -153, -11, 95, 50, -14, -16, -9, 0, 0
1486725609.2564964, -96, -148, -11, 107, 55, -16, -12, -11, 0, 0
1486725609.2569926, -88, -149, -10, 129, 67, -17, -7, -5, 0, 0
1486725609.2704906, -89, -156, -11, 122, 50, -14, -15, -16, 0, 0
1486725609.271445, -92, -150, -10, 96, 46, -13, -9, -8, 0, 0
1486725609.2718325, -108, -160, -11, 97, 47, -16, -24, -9, 0, 0
1486725609.2780967, -107, -153, -11, 113, 55, -14, -12, -18, 0, 0
1486725609.278449, -93, -153, -11, 133, 71, -9, -13, -6, 0, 0
1486725609.2807794, -95, -159, -9, 121, 61, -21, -13, -8, 0, 0
1486725609.2937164, -92, -150, -10, 98, 62, -12, -11, -12, 0, 0
1486725609.2943773, -113, -154, -10, 105, 63, -9, -6, -2, 0, 0
1486725609.2944622, -107, -152, -11, 126, 77, -9, -4, -11, 0, 0
1486725609.295392, -105, -159, -11, 129, 67, -17, -7, -5, 0, 0
1486725609.308679, -103, -158, -10, 132, 72, -14, -9, -16, 0, 0
1486725609.308813, -111, -156, -11, 109, 47, -17, -14, -7, 0, 0
1486725609.3104358, -112, -153, -11, 104, 47, -16, -24, -9, 0, 0
1486725609.3156145, -103, -150, -10, 126, 67, -17, -16, -18, 0, 0
1486725609.316372, -96, -145, -11, 132, 61, -21, -16, -20, 0, 0
1486725609.31883, -104, -144, -11, 115, 54, -21, -13, -8, 0, 0
1486725609.330607, -110, -146, -11, 100, 43, -19, -9, -10, 0, 0
1486725609.3313222, -108, -141, -10, 102, 53, -17, -17, -18, 0, 0
1486725609.3321543, -100, -138, -10, 126, 64, -23, -4, -11, 0, 0
1486725609.3454654, -103, -144, -10, 134, 64, -19, -20, -17, 0, 0
1486725609.346441, -97, -143, -10, 109, 51, -11, -15, -6, 0, 0
1486725609.3486035, -101, -143, -11, 96, 48, -16, -17, -7, 0, 0
1486725609.3530796, -114, -146, -10, 99, 48, -22, -15, -17, 0, 0
1486725609.3539848, -98, -137, -10, 114, 60, -23, -16, -10, 0, 0
1486725609.354931, -93, -138, -11, 120, 56, -12, -17, -12, 0, 0
1486725609.368047, -93, -139, -11, 101, 53, -20, -17, -11, 0, 0
1486725609.3689134, -102, -134, -11, 84, 39, -14, -17, -12, 0, 0
1486725609.3719153, -106, -132, -10, 86, 52, -14, -17, -18, 0, 0
1486725609.3830142, -94, -135, -11, 111, 54, -18, -9, -11, 0, 0
1486725609.3838556, -95, -132, -10, 108, 53, -13, -8, -14, 0, 0
1486725609.3880966, -91, -132, -11, 86, 45, -15, -16, -13, 0, 0
1486725609.3904686, -101, -132, -10, 70, 37, -19, -8, -15, 0, 0
1486725609.3914223, -110, -137, -10, 86, 50, -15, -10, -15, 0, 0
1486725609.3933017, -97, -137, -10, 110, 46, -12, -16, -18, 0, 0
1486725609.4056315, -97, -139, -10, 109, 54, -11, -3, -11, 0, 0
1486725609.405881, -97, -135, -11, 91, 39, -14, -15, -10, 0, 0
1486725609.4074028, -109, -137, -10, 85, 46, -16, -14, -12, 0, 0
1486725609.420504, -114, -141, -10, 95, 54, -10, -8, -12, 0, 0
1486725609.4214418, -93, -135, -12, 114, 61, -14, -8, -13, 0, 0
1486725609.4229076, -73, -139, -11, 110, 65, -14, -13, -17, 0, 0
1486725609.4281154, -97, -136, -10, 89, 47, -11, -8, -20, 0, 0
1486725609.4289224, -97, -132, -10, 82, 43, -11, -8, -14, 0, 0
1486725609.4297006, -97, -131, -10, 99, 59, -15, -11, -11, 0, 0
1486725609.443066, -81, -137, -9, 125, 68, -17, -7, -14, 0, 0
1486725609.4434044, -83, -139, -11, 116, 52, -9, -16, -13, 0, 0
1486725609.4464586, -96, -143, -11, 102, 55, -14, -15, -10, 0, 0
1486725609.4580972, -112, -139, -11, 99, 53, -18, -13, -9, 0, 0
1486725609.4589148, -103, -135, -11, 111, 60, -15, -14, -16, 0, 0
1486725609.4600322, -99, -133, -11, 125, 67, -15, -8, -13, 0, 0
1486725609.4655004, -97, -135, -11, 112, 59, -16, -12, -16, 0, 0
1486725609.4664423, -101, -131, -10, 91, 51, -13, -15, -14, 0, 0
1486725609.4681144, -110, -128, -9, 93, 50, -14, -9, -14, 0, 0
1486725609.480469, -98, -133, -10, 108, 58, -15, -7, -13, 0, 0
1486725609.4814441, -103, -139, -10, 123, 63, -19, -10, -15, 0, 0
1486725609.4837685, -98, -144, -10, 109, 57, -15, -11, -15, 0, 0
1486725609.4955359, -100, -145, -11, 86, 36, -11, -10, -17, 0, 0
1486725609.4963, -111, -132, -10, 84, 40, -11, -9, -15, 0, 0
1486725609.4970617, -91, -134, -10, 106, 54, -18, -8, -3, 0, 0
1486725609.4982772, -92, -133, -11, 125, 67, -15, -11, -10, 0, 0
1486725609.5035367, -91, -136, -12, 105, 53, -10, -13, -9, 0, 0
1486725609.5036032, -103, -137, -10, 83, 45, -6, -9, -12, 0, 0
1486725609.518052, -103, -132, -10, 86, 45, -18, -15, -4, 0, 0
1486725609.5186484, -96, -128, -12, 103, 55, -11, -11, -15, 0, 0
1486725609.5195646, -79, -131, -10, 110, 56, -13, -15, -16, 0, 0
1486725609.5204325, -82, -133, -10, 109, 57, -15, -11, -15, 0, 0
1486725609.5405877, -93, -126, -10, 71, 36, -11, -9, -14, 0, 0
1486725609.5411928, -96, -127, -11, 76, 47, -13, -11, -11, 0, 0
1486725609.5420365, -87, -124, -10, 106, 54, -18, -8, -3, 0, 0
1486725609.5424042, -79, -124, -11, 110, 58, -11, -13, -14, 0, 0
1486725609.548109, -84, -124, -11, 89, 46, -9, -8, -13, 0, 0
1486725609.5533185, -87, -123, -10, 75, 45, -6, -9, -12, 0, 0
1486725609.556451, -87, -126, -10, 88, 51, -8, -17, -22, 0, 0
1486725609.5587711, -77, -130, -12, 111, 66, -15, -16, -12, 0, 0
1486725609.5588422, -79, -133, -11, 112, 68, -6, -15, -16, 0, 0
1486725609.570582, -82, -134, -9, 91, 47, -11, -4, -15, 0, 0
1486725609.5714304, -81, -127, -11, 81, 49, -13, -16, -16, 0, 0
1486725609.5720625, -90, -130, -10, 91, 54, -15, -17, -15, 0, 0
1486725609.5780225, -75, -123, -10, 109, 53, -15, -10, -11, 0, 0
1486725609.5799925, -79, -131, -11, 104, 50, -14, -9, -18, 0, 0
1486725609.5873609, -83, -129, -10, 83, 41, -9, -8, -13, 0, 0
1486725609.593022, -85, -123, -10, 71, 38, -14, -18, -20, 0, 0
1486725609.5939136, -87, -129, -9, 88, 54, -12, -6, -9, 0, 0
1486725609.5960028, -74, -126, -10, 109, 64, -16, -16, -12, 0, 0
1486725609.6081042, -67, -130, -10, 112, 63, -12, -16, -12, 0, 0
1486725609.6089344, -92, -134, -11, 90, 40, -17, -15, -13, 0, 0
1486725609.6107104, -95, -127, -11, 83, 46, -16, -10, -16, 0, 0
1486725609.6155279, -86, -122, -11, 93, 49, -13, -13, -10, 0, 0
1486725609.616411, -81, -129, -10, 109, 65, -13, -12, -14, 0, 0
1486725609.617506, -76, -131, -10, 106, 41, -12, -19, -10, 0, 0
1486725609.6305072, -78, -126, -10, 82, 38, -15, -10, -12, 0, 0
1486725609.631445, -88, -123, -10, 76, 40, -19, -19, -12, 0, 0
1486725609.6328912, -82, -124, -9, 99, 48, -12, -6, -9, 0, 0
1486725609.6454587, -76, -127, -10, 110, 51, -14, -18, -20, 0, 0
1486725609.6465302, -72, -127, -10, 99, 44, -17, -14, -12, 0, 0
1486725609.6474779, -69, -128, -11, 80, 43, -10, -15, -13, 0, 0
1486725609.6530457, -82, -124, -9, 83, 38, -18, -15, -13, 0, 0
1486725609.6539435, -73, -124, -10, 102, 50, -19, -14, -17, 0, 0
1486725609.659129, -68, -124, -9, 111, 58, -10, -16, -14, 0, 0
1486725609.668069, -60, -127, -10, 98, 51, -8, -11, -10, 0, 0
1486725609.668554, -70, -123, -10, 74, 32, -9, -13, -8, 0, 0
1486725609.6694524, -78, -111, -11, 70, 36, -11, -17, -13, 0, 0
1486725609.6831405, -61, -116, -10, 86, 44, -17, -13, -11, 0, 0
1486725609.6839983, -65, -116, -11, 92, 40, -3, -13, -16, 0, 0
1486725609.685791, -66, -116, -10, 77, 29, -10, -14, -12, 0, 0
1486725609.6905484, -69, -111, -11, 60, 21, -13, -19, -16, 0, 0
1486725609.6908684, -68, -103, -10, 61, 35, -7, -7, -15, 0, 0
1486725609.6937737, -58, -104, -11, 80, 47, -13, -14, -17, 0, 0
1486725609.7050889, -53, -106, -11, 85, 42, -9, -10, -12, 0, 0
1486725609.7062175, -64, -105, -10, 68, 32, -5, -13, -10, 0, 0
1486725609.7075117, -65, -108, -10, 56, 28, -8, -9, -8, 0, 0
1486725609.7205956, -66, -106, -10, 60, 34, -8, -6, -11, 0, 0
1486725609.7215788, -57, -106, -10, 84, 45, -14, -16, -23, 0, 0
1486725609.7218826, -54, -113, -11, 95, 43, -10, -17, -10, 0, 0
1486725609.7281592, -60, -109, -10, 73, 27, -10, -12, -10, 0, 0
1486725609.7290447, -65, -102, -10, 55, 27, -12, -15, -16, 0, 0
1486725609.7308185, -71, -99, -10, 61, 34, -15, -6, -18, 0, 0
1486725609.7437701, -58, -96, -11, 84, 42, -18, -10, -16, 0, 0
1486725609.744532, -58, -101, -11, 86, 42, -12, -10, -17, 0, 0
1486725609.7445893, -50, -103, -10, 73, 32, -6, -13, -20, 0, 0
1486725609.7450361, -56, -108, -10, 56, 28, -8, -9, -8, 0, 0
1486725609.758095, -58, -100, -10, 71, 29, -13, -9, -18, 0, 0
1486725609.7590065, -49, -104, -11, 94, 43, -10, -9, -4, 0, 0
1486725609.7608845, -39, -107, -11, 85, 43, -10, -17, -10, 0, 0
1486725609.766531, -52, -103, -10, 65, 27, -11, -15, -8, 0, 0
1486725609.7667925, -62, -103, -10, 55, 24, -13, -15, -13, 0, 0
1486725609.7668293, -59, -104, -11, 67, 34, -15, -6, -18, 0, 0
1486725609.7881165, -47, -100, -10, 88, 44, -10, -9, -9, 0, 0
1486725609.7887042, -42, -107, -11, 89, 51, -6, -10, -12, 0, 0
1486725609.7897627, -58, -110, -11, 71, 30, -6, -13, -20, 0, 0
1486725609.7909932, -62, -100, -10, 65, 40, -3, -15, -9, 0, 0
1486725609.7958622, -60, -106, -11, 78, 33, -17, -15, -12, 0, 0
1486725609.796329, -52, -107, -12, 92, 54, -10, -9, -4, 0, 0
1486725609.8029625, -48, -110, -10, 85, 39, -7, -19, -8, 0, 0
1486725609.8039613, -51, -108, -10, 65, 33, -8, -8, -16, 0, 0
1486725609.8053696, -65, -106, -10, 57, 26, -15, -16, -13, 0, 0
1486725609.8181794, -55, -102, -10, 75, 42, -12, -18, -21, 0, 0
1486725609.8189144, -50, -112, -11, 93, 36, -15, -12, -10, 0, 0
1486725609.8210895, -48, -111, -10, 85, 34, -12, -6, -10, 0, 0
1486725609.8329906, -45, -108, -12, 63, 21, -11, -14, -10, 0, 0
1486725609.8339815, -59, -105, -11, 63, 27, -16, -11, -10, 0, 0
1486725609.835035, -44, -108, -11, 76, 38, -17, -15, -12, 0, 0
1486725609.8405032, -48, -107, -10, 90, 37, -3, -5, -6, 0, 0
1486725609.8407526, -43, -107, -9, 73, 31, -10, -7, -12, 0, 0
1486725609.8423388, -52, -110, -10, 58, 18, -15, -13, -16, 0, 0
1486725609.8554773, -61, -105, -11, 58, 28, -12, -6, -18, 0, 0
1486725609.856553, -51, -107, -11, 73, 33, -14, -5, -11, 0, 0
1486725609.8585095, -43, -102, -11, 82, 42, -15, -12, -10, 0, 0
1486725609.8705926, -41, -101, -11, 66, 26, -14, -12, -20, 0, 0
1486725609.871515, -51, -101, -9, 54, 24, -5, -6, -13, 0, 0
1486725609.8720224, -51, -101, -11, 57, 33, -9, -5, -10, 0, 0
1486725609.8791053, -48, -99, -10, 76, 40, -11, -12, -11, 0, 0
1486725609.8806381, -37, -102, -11, 87, 32, -13, -19, -19, 0, 0
1486725609.88071, -45, -107, -11, 65, 28, -7, -18, -12, 0, 0
1486725609.8931139, -39, -96, -10, 47, 15, -11, -15, -23, 0, 0
1486725609.8971922, -50, -103, -11, 61, 15, -8, -11, -8, 0, 0
1486725609.900412, -38, -102, -11, 76, 31, -13, -13, -24, 0, 0
1486725609.9078417, -32, -101, -11, 82, 32, -11, -15, -17, 0, 0
1486725609.9090323, -41, -100, -10, 64, 23, -9, -14, -16, 0, 0
1486725609.9106603, -50, -94, -10, 48, 14, -11, -17, -20, 0, 0
1486725609.9155207, -48, -95, -12, 59, 30, -10, -14, -17, 0, 0
1486725609.916619, -35, -101, -10, 83, 46, -8, -11, -12, 0, 0
1486725609.9177485, -43, -104, -11, 85, 39, -13, -19, -19, 0, 0
1486725609.930574, -41, -99, -12, 68, 30, -12, -15, -12, 0, 0
1486725609.931533, -59, -96, -11, 52, 20, -11, -11, -20, 0, 0
1486725609.9334314, -43, -96, -12, 65, 33, -8, -11, -8, 0, 0
1486725609.9464993, -41, -101, -11, 81, 44, -12, -8, -18, 0, 0
1486725609.9493604, -28, -98, -11, 76, 34, -12, -10, -16, 0, 0
1486725609.9494307, -48, -97, -10, 54, 25, -6, -14, -16, 0, 0
1486725609.9530516, -50, -91, -11, 41, 26, -10, -7, -12, 0, 0
1486725609.954026, -50, -94, -11, 59, 29, -21, -13, -13, 0, 0
1486725609.9559762, -37, -91, -11, 79, 42, -17, -11, -19, 0, 0
1486725609.9681787, -31, -95, -10, 67, 38, -17, -13, -10, 0, 0
1486725609.9685926, -41, -87, -11, 52, 21, -16, -12, -14, 0, 0
1486725609.9697251, -48, -92, -9, 53, 41, -8, -11, -19, 0, 0
1486725609.9703877, -43, -96, -12, 65, 33, -13, -14, -23, 0, 0
1486725609.9831161, -48, -93, -11, 85, 52, -16, -16, -14, 0, 0
1486725609.9840562, -38, -93, -11, 71, 32, -10, -19, -10, 0, 0
1486725609.9854848, -42, -87, -11, 54, 25, -6, -7, -10, 0, 0
1486725609.9905934, -49, -93, -11, 46, 34, -11, -12, -11, 0, 0
1486725609.9915335, -55, -89, -10, 60, 34, -16, -9, -18, 0, 0
1486725609.9927797, -41, -86, -10, 76, 50, -17, -11, -19, 0, 0
1486725610.0055342, -40, -94, -10, 72, 33, -19, -15, -17, 0, 0
1486725610.006647, -42, -91, -11, 46, 29, -16, -18, -11, 0, 0
1486725610.010872, -48, -88, -9, 53, 41, -8, -11, -19, 0, 0
1486725610.0205219, -51, -91, -11, 76, 49, -16, -8, -10, 0, 0
1486725610.0214815, -39, -85, -11, 89, 47, -9, -2, -8, 0, 0
1486725610.0218785, -46, -96, -11, 71, 32, -10, -19, -10, 0, 0
1486725610.028076, -46, -87, -11, 55, 33, -7, -12, -7, 0, 0
1486725610.0288622, -61, -84, -10, 51, 31, -7, -14, -21, 0, 0
1486725610.0330317, -46, -86, -11, 69, 34, -16, -9, -18, 0, 0
1486725610.0438964, -45, -92, -10, 82, 39, -22, -21, -19, 2510, 1390
1486725610.0441515, -37, -90, -10, 67, 33, -18, -19, -9, 2510, 1390
1486725610.0441875, -47, -88, -10, 52, 30, -17, -16, -11, 2510, 1390
1486725610.057952, -64, -91, -11, 60, 35, -5, -9, -13, 2510, 1390
1486725610.0583036, -53, -95, -11, 76, 39, -15, -9, -13, 2510, 1390
1486725610.0590641, -48, -92, -10, 87, 40, -9, -2, -8, 2510, 1390
1486725610.0657182, -45, -91, -11, 66, 21, -12, -10, -14, 2510, 1390
1486725610.0662057, -50, -87, -11, 54, 21, -16, -12, -13, 2510, 1390
1486725610.0668561, -52, -86, -10, 66, 27, -7, -14, -21, 2510, 1390
1486725610.0805323, -42, -91, -10, 86, 52, -6, -3, -9, 2510, 1390
1486725610.080923, -30, -94, -10, 89, 53, -7, -9, -12, 2510, 1390
1486725610.0816367, -39, -95, -11, 65, 34, -10, -12, -9, 2510, 1390
1486725610.0954762, -41, -86, -11, 44, 36, -7, -11, -11, 2510, 1390
1486725610.0963757, -53, -90, -10, 53, 34, -12, -1, -13, 2510, 1390
1486725610.0975273, -43, -86, -10, 70, 41, -15, -8, -9, 2510, 1390
1486725610.1031024, -39, -89, -11, 70, 37, -10, -7, -16, 2510, 1390
1486725610.1034617, -33, -84, -9, 46, 14, -16, -9, -20, 2510, 1390
1486725610.1041744, -42, -84, -10, 35, 19, -10, -4, -6, 2510, 1390
1486725610.1179516, -44, -84, -10, 51, 29, -20, -7, -17, 2510, 1390
1486725610.118425, -45, -86, -10, 75, 42, -11, -6, -10, 2510, 1390
1486725610.119069, -29, -81, -10, 73, 48, -10, -10, -19, 2510, 1390
1486725610.1332786, -37, -82, -11, 49, 26, -15, -9, -15, 2510, 1390
1486725610.133346, -48, -82, -10, 41, 30, -11, -6, -12, 2510, 1390
1486725610.1342459, -37, -86, -10, 52, 43, -12, -1, -13, 2510, 1390
1486725610.1405082, -37, -86, -9, 71, 43, -6, -10, -18, 2510, 1390
1486725610.1409006, -37, -87, -9, 63, 39, -8, -9, -20, 2510, 1390
1486725610.1417353, -49, -86, -11, 41, 21, -8, -11, -20, 2510, 1390
1486725610.1554592, -43, -86, -10, 37, 22, -14, -11, -14, 2510, 1390
1486725610.1558478, -49, -82, -10, 52, 30, -12, -14, -11, 2510, 1390
1486725610.1567097, -44, -91, -11, 73, 46, -17, -18, -19, 2510, 1390
1486725610.1704576, -37, -87, -12, 64, 36, -14, -13, -8, 2510, 1390
1486725610.170866, -42, -87, -11, 48, 32, -5, -12, -15, 2510, 1390
1486725610.1716037, -50, -87, -11, 40, 28, -9, -13, -7, 2510, 1390
1486725610.1781013, -44, -85, -10, 59, 45, -2, -5, -10, 2510, 1390
1486725610.17852, -33, -83, -10, 80, 48, -12, -12, -13, 2510, 1390
1486725610.1791747, -30, -83, -11, 64, 31, -8, -9, -20, 2510, 1390
1486725610.1931334, -28, -83, -10, 45, 30, -8, -16, -14, 2510, 1390
1486725610.193552, -48, -87, -10, 49, 31, -15, -14, -9, 2510, 1390
1486725610.1941862, -43, -85, -11, 67, 40, -12, -11, -15, 2510, 1390
1486725610.2079554, -32, -86, -10, 79, 26, -15, -9, -14, 2510, 1390
1486725610.2083523, -35, -91, -11, 72, 35, -7, -12, -13, 2510, 1390
1486725610.2090466, -39, -84, -10, 49, 25, -6, -20, -14, 2510, 1390
1486725610.2154927, -46, -80, -11, 46, 33, -9, -22, -26, 2510, 1390
1486725610.2158349, -40, -80, -10, 69, 42, -6, -10, -15, 2510, 1390
1486725610.2166083, -36, -88, -10, 81, 43, -9, -11, -16, 2510, 1390
1486725610.2175248, -24, -86, -11, 64, 31, -11, -7, -11, 2510, 1390
1486725610.2305934, -36, -87, -11, 48, 23, -10, -17, -21, 2510, 1390
1486725610.2309835, -44, -90, -11, 56, 37, -12, -8, -14, 2510, 1390
1486725610.2316437, -34, -87, -10, 67, 40, -12, -11, -15, 2510, 1390
1486725610.245313, -29, -79, -11, 81, 37, -16, -18, -17, 2510, 1390
1486725610.2457285, -32, -87, -10, 72, 19, -12, -10, -6, 2510, 1390
1486725610.246445, -42, -85, -11, 54, 24, -6, -20, -14, 2510, 1390
1486725610.2528496, -54, -84, -11, 60, 33, -8, -9, -15, 2510, 1390
1486725610.2532437, -40, -85, -11, 78, 40, -4, -5, -19, 2510, 1390
1486725610.254044, -29, -82, -11, 80, 31, -14, -6, -16, 2510, 1390
1486725610.267928, -36, -80, -12, 59, 25, -12, -10, -14, 2510, 1390
1486725610.2682846, -36, -76, -11, 42, 23, -12, -15, -11, 2510, 1390
1486725610.2691958, -42, -78, -10, 51, 26, -15, -7, -14, 2510, 1390
1486725610.2830126, -38, -76, -10, 66, 33, -13, -15, -17, 2510, 1390
1486725610.283266, -28, -74, -10, 66, 35, -5, -12, -16, 2510, 1390
1486725610.2844055, -27, -75, -11, 44, 22, -5, -8, -6, 2510, 1390
1486725610.2906387, -37, -71, -11, 34, 8, -8, -12, -15, 2510, 1390
1486725610.2910223, -41, -74, -11, 43, 26, -11, -15, -20, 2510, 1390
1486725610.2916722, -39, -78, -10, 68, 41, -12, -10, -10, 2510, 1390
1486725610.305644, -27, -80, -10, 62, 29, -12, -14, -22, 2510, 1390
1486725610.3060641, -34, -80, -10, 37, 20, -9, -10, -11, 2510, 1390
1486725610.30671, -33, -73, -10, 26, 14, -9, -11, -17, 2510, 1390
1486725610.3206723, -34, -71, -10, 45, 20, -14, -10, -17, 2510, 1390
1486725610.3210363, -24, -70, -11, 59, 25, -10, -3, -16, 2510, 1390
1486725610.3279064, -15, -75, -11, 58, 26, -5, -12, -16, 2510, 1390
1486725610.3282971, -33, -72, -11, 34, 13, -19, -24, -17, 2510, 1390
1486725610.3289185, -34, -69, -11, 28, 12, -17, -5, -18, 2510, 1390
1486725610.3299186, -36, -73, -10, 44, 21, -9, -12, -20, 2510, 1390
1486725610.343169, -24, -68, -12, 59, 33, -12, -7, -18, 2510, 1390
1486725610.3435812, -20, -73, -11, 55, 29, -9, -10, -6, 2510, 1390
1486725610.344069, -33, -75, -10, 33, 14, -8, -9, -12, 2510, 1390
1486725610.358013, -40, -74, -11, 30, 18, -9, -8, -9, 2510, 1390
1486725610.3584023, -34, -73, -11, 46, 40, -4, -3, -14, 2510, 1390
1486725610.3592193, -18, -71, -10, 54, 32, -10, -3, -16, 2510, 1390
1486725610.3657212, -20, -74, -10, 46, 20, -6, -7, -10, 2510, 1390
1486725610.366097, -26, -69, -11, 26, 10, -13, -8, -14, 2510, 1390
1486725610.3667264, -36, -68, -11, 28, 13, -17, -5, -18, 2510, 1390
1486725610.3805606, -33, -63, -10, 49, 36, -15, -10, -12, 2510, 1390
1486725610.3809538, -31, -74, -11, 60, 35, -12, -14, -10, 2510, 1390
1486725610.3817277, -27, -75, -11, 45, 22, -13, -14, -13, 2510, 1390
1486725610.395501, -38, -70, -10, 26, 15, -11, -13, -17, 2510, 1390
1486725610.3959446, -50, -73, -10, 33, 16, 1, -1, -16, 2510, 1390
1486725610.396725, -40, -73, -10, 53, 31, -14, -7, -12, 2510, 1390
1486725610.4030802, -33, -71, -10, 64, 27, -8, -12, -15, 2510, 1390
1486725610.4034579, -34, -72, -10, 50, 20, -8, -12, -16, 2510, 1390
1486725610.4049032, -39, -69, -11, 32, 10, -13, -8, -14, 2510, 1390
1486725610.4180489, -45, -70, -9, 34, 18, -18, -12, -11, 2510, 1390
1486725610.4184108, -32, -77, -11, 58, 28, -8, -8, -23, 2510, 1390
1486725610.4191499, -20, -84, -10, 66, 23, -12, -12, -10, 2510, 1390
1486725610.4330163, -25, -75, -10, 39, 1, -8, -9, -10, 2510, 1390
1486725610.4333873, -26, -74, -10, 19, -1, -9, -10, -13, 2510, 1390
1486725610.43423, -40, -71, -10, 33, 6, -8, -8, -9, 2510, 1390
1486725610.4405751, -29, -67, -10, 50, 18, -3841, -4609, -13313, 2510, 1390
1486725610.440971, -27, -71, -9, 38, -5, -20, -12, -16, 2510, 1390
1486725610.455505, -39, -63, -11, 23, -1, -15, -18, -15, 2510, 1390
1486725610.4558952, -36, -65, -10, 30, 4, -10, -11, -12, 2510, 1390
1486725610.4565592, -30, -67, -10, 50, 22, -13, -15, -11, 2510, 1390
1486725610.4575043, -32, -77, -11, 58, 28, -8, -8, -23, 2510, 1390
1486725610.4705493, -25, -61, -10, 22, -11, -9, -8, -8, 2510, 1390
1486725610.4709668, -41, -63, -10, 7, -12, -11, -20, -17, 2510, 1390
1486725610.471697, -32, -58, -12, 24, -1, -9, -10, -13, 2510, 1390
1486725610.4780838, -33, -60, -10, 46, 19, -12, -8, -16, 2510, 1390
1486725610.478321, -28, -59, -11, 41, 13, -8, -6, -9, 2510, 1390
1486725610.4793265, -34, -65, -11, 23, -5, -20, -12, -16, 2510, 1390
1486725610.4930973, -37, -60, -10, 21, 7, -9, -8, -9, 2510, 1390
1486725610.493492, -31, -69, -11, 37, 19, -2, -3, -9, 2510, 1390
1486725610.4942405, -20, -70, -9, 52, 22, -13, -15, -11, 2510, 1390
1486725610.5079684, -8, -73, -11, 52, 22, -4, -11, -14, 2510, 1390
1486725610.5083241, -20, -71, -11, 31, -1, -16, -16, -13, 2510, 1390
1486725610.5092065, -32, -64, -11, 23, -245, -11, -20, -17, 2510, 1390
1486725610.5154877, -43, -66, -11, 44, 14, -20, -11, -19, 2510, 1390
1486725610.515857, -28, -70, -11, 63, 21, -14, -7, -10, 2510, 1390
1486725610.5167458, -34, -71, -10, 52, 17, -11, -6, -9, 2510, 1390
1486725610.5308635, -42, -71, -12, 31, 13, -13, -11, -7, 2510, 1390
1486725610.5312228, -50, -72, -10, 28, 13, -16, -10, -13, 2510, 1390
1486725610.53157, -42, -71, -11, 50, 25, -18, -3, -9, 2510, 1390
1486725610.5455217, -27, -74, -11, 62, 24, -16, -12, -13, 2510, 1390
1486725610.5459216, -34, -74, -10, 54, 19, -7, -14, -16, 2510, 1390
1486725610.5468109, -40, -68, -9, 32, 17, -11, -16, -13, 2510, 1390
1486725610.5529842, -54, -69, -10, 29, 11, -12, -14, -20, 2510, 1390
1486725610.5533645, -49, -68, -10, 44, 13, -12, -6, -13, 2510, 1390
1486725610.5543306, -41, -71, -10, 53, 16, -16, -17, -12, 2510, 1390
1486725610.5680356, -39, -70, -10, 39, 15, -11, -19, -16, 2510, 1390
1486725610.5684266, -56, -71, -11, 20, 8, -4, -14, -5, 2510, 1390
1486725610.5693061, -54, -63, -11, 21, 7, -16, -10, -13, 2510, 1390
1486725610.5829284, -49, -61, -10, 42, 22, -13, -13, -13, 2510, 1390
1486725610.5833664, -35, -68, -9, 49, 21, -9, -10, -13, 2510, 1390
1486725610.5842476, -34, -67, -11, 31, 17, -7, -14, -16, 2510, 1390
1486725610.5906208, -48, -65, -9, 17, 8, -13, -16, -10, 2510, 1390
1486725610.5910058, -61, -64, -10, 29, 17, -10, -5, -17, 2510, 1390
1486725610.5917168, -51, -66, -9, 50, 18, -9, -6, -13, 2510, 1390
1486725610.6055725, -41, -65, -11, 53, 31, -8, -13, -16, 2510, 1390
1486725610.6058996, -48, -64, -10, 28, 13, -5, -11, -7, 2510, 1390
1486725610.6067166, -57, -62, -11, 15, 7, -6, -13, -8, 2510, 1390
1486725610.6206028, -67, -65, -11, 21, 26, -7, -4, -9, 2510, 1390
1486725610.6210332, -59, -62, -10, 46, 35, -8, -12, -14, 2510, 1390
1486725610.6215641, -46, -55, -11, 46, 27, -9, -10, -13, 2510, 1390
1486725610.6279702, -44, -59, -10, 35, 17, -9, -13, -15, 2510, 1390
1486725610.6283698, -57, -60, -11, 16, 12, -8, -11, -12, 2510, 1390
1486725610.6294084, -68, -54, -10, 24, 22, -8, -5, -17, 2510, 1390
1486725610.6429532, -49, -61, -11, 44, 37, -6, -7, -8, 2510, 1390
1486725610.643355, -50, -67, -11, 45, 36, -6, -15, -8, 2510, 1390
1486725610.6441584, -57, -62, -10, 30, 29, -5, -13, -12, 2510, 1390
1486725610.6579828, -72, -66, -11, 21, 21, -8, -11, -13, 2510, 1390
1486725610.6583736, -67, -66, -10, 36, 35, -10, -7, -13, 2510, 1390
1486725610.6593237, -70, -69, -11, 57, 42, -12, -12, -5, 2510, 1390
1486725610.6655805, -56, -70, -9, 47, 45, -11, -19, -16, 2510, 1390
1486725610.6659682, -58, -67, -10, 26, 26, -6, -8, -17, 2510, 1390
1486725610.666877, -63, -66, -11, 20, 21, -5, -15, -12, 2510, 1390
1486725610.6811314, -60, -65, -10, 32, 14872, -12560, -15361, -2305, 2510, 1390
1486725610.6812253, -44, -62, -10, 42, 26, -7, -10, -9, 2510, 1390
1486725610.6818964, -50, -67, -11, 45, 36, -6, -15, -8, 2510, 1390
1486725610.6955209, -61, -59, -10, 14, 17, -9, -12, -21, 2510, 1390
1486725610.6959133, -59, -56, -9, 32, 20, -12, -15, -8, 2510, 1390
1486725610.6968777, -46, -66, -10, 36, 35, -10, -7, -13, 2510, 1390
1486725610.7029932, -49, -61, -10, 49, 29, -9, -13, -14, 2510, 1390
1486725610.7033613, -59, -63, -11, 31, 21, -4, -10, -13, 2510, 1390
1486725610.7041824, -67, -65, -9, 25, 26, -6, -8, -17, 2510, 1390
1486725610.7179706, -49, -60, -12, 45, 34, -13, -18, -16, 2510, 1390
1486725610.718311, -37, -61, -11, 60, 42, -11, -20, -15, 2510, 1390
1486725610.7193196, -49, -63, -11, 45, 26, -7, -10, -9, 2510, 1390
1486725610.732996, -61, -59, -11, 18, 18, -8, -10, -10, 2510, 1390
1486725610.7333634, -67, -56, -11, 15, 9, -3, -8, -10, 2510, 1390
1486725610.7345755, -45, -64, -10, 47, 33, -12, -15, -8, 2510, 1390
1486725610.7407262, -48, -76, -10, 75, 42, -9, -14, -12, 2510, 1390
1486725610.7410853, -37, -90, -10, 71, 33, -15, -16, -12, 2510, 1390
1486725610.7421381, -43, -98, -10, 59, 23, -4, -10, -13, 2510, 1390
1486725610.7556202, -43, -112, -10, 77, 39, -13, -12, -12, 2510, 1390
1486725610.7559564, -42, -132, -11, 109, 55, -10, -14, -11, 2510, 1390
1486725610.7631788, -15, -139, -11, 129, 58, -17, -18, -15, 2510, 1390
1486725610.7705462, -15, -161, -11, 132, 50, -16, -11, -14, 2510, 1390
1486725610.77096, -19, -165, -10, 124, 45, -20, -16, -16, 2510, 1390
1486725610.7718487, -22, -184, -10, 150, 60, -18, -9, -9, 2510, 1390
1486725610.7779467, -10, -203, -11, 187, 74, -22, -12, -13, 2510, 1390
1486725610.7781975, 4, -221, -11, 212, 87, -7, -14, -15, 2510, 1390
1486725610.7793705, 11, -233, -12, 207, 72, -11, -14, -8, 2510, 1390
1486725610.793105, 7, -246, -10, 213, 84, -16, -19, -15, 2510, 1390
1486725610.794036, 0, -250, -11, 231, 83, -14, -21, -12, 2510, 1390
1486725610.794086, 12, -250, -10, 255, 100, -15, -15, -12, 2510, 1390
1486725610.8080149, 12, -265, -10, 269, 95, -16, -16, -6, 2510, 1390
1486725610.8084106, 10, -262, -11, 250, 88, -7, -14, -12, 2510, 1390
1486725610.8093486, 10, -258, -11, 232, 83, -20, -16, -16, 2510, 1390
1486725610.8155754, 5, -257, -10, 241, 89, -14, -13, -18, 2510, 1390
1486725610.81581, 21, -252, -11, 259, 99, -5, -13, -16, 2510, 1390
1486725610.8168771, 31, -256, -10, 264, 92, -18, -14, -15, 2510, 1390
1486725610.830366, 22, -259, -11, 243, 85, -13, -18, -11, 1280, 720
1486725610.8309946, 2, -255, -10, 232, 84, -8, -14, -4, 1280, 720
1486725610.831466, 8, -261, -11, 243, 96, -10, -14, -16, 1280, 720
1486725610.8456457, 11, -263, -11, 260, 103, -13, -13, -12, 1280, 720
1486725610.846115, 18, -263, -10, 256, 99, -19, -22, -15, 1280, 720
1486725610.8467095, 15, -259, -11, 238, 87, -5, -13, -5, 1280, 720
1486725610.8530169, -8, -260, -11, 223, 87, -10, -11, -12, 1280, 720
1486725610.8534174, -4, -262, -11, 239, 100, -5, -13, -14, 1280, 720
1486725610.8545434, 8, -260, -11, 257, 101, -5, -13, -16, 1280, 720
1486725610.8678734, 21, -252, -12, 248, 102, -7, -13, -18, 1280, 720
1486725610.8686268, 13, -251, -10, 226, 88, -6, -18, -11, 1280, 720
1486725610.8695793, 12, -249, -11, 218, 83, -9, -16, -4, 1280, 720
1486725610.8829377, 17, -247, -11, 230, 86, -8, -15, -17, 1280, 720
1486725610.8833566, 27, -251, -10, 241, 89, -16, -17, -16, 1280, 720
1486725610.884212, 29, -246, -10, 231, 77, -11, -14, -12, 1280, 720
1486725610.890635, 15, -243, -11, 205, 69, -11, -13, -14, 1280, 720
1486725610.8910239, 12, -244, -10, 203, 76, -9, -12, -13, 1280, 720
1486725610.8918235, 22, -242, -10, 219, 79, -19, -17, -14, 1280, 720
1486725610.9053843, 34, -243, -10, 229, 80, -12, -14, -16, 1280, 720
1486725610.9061573, 41, -241, -10, 221, 73, -13, -21, -8, 1280, 720
1486725610.9070282, 51, -243, -10, 200, 63, -15, -14, -16, 1280, 720
1486725610.9204829, 34, -241, -11, 204, 68, -19, -13, -18, 1280, 720
1486725610.9208374, 33, -242, -10, 229, 83, -16, -16, -18, 1280, 720
1486725610.9215558, 47, -237, -10, 239, 79, -24, -25, -14, 1280, 720
1486725610.9224987, 44, -246, -10, 231, 77, -11, -14, -12, 1280, 720
1486725610.9279606, 34, -237, -10, 206, 56, -16, -17, -15, 1280, 720
1486725610.9283412, 20, -236, -11, 203, 60, -15, -16, -24, 1280, 720
1486725610.9294095, 38, -233, -11, 214, 79, -19, -17, -15, 1280, 720
1486725610.9429412, 46, -233, -11, 223, 67, -5, -12, -19, 1280, 720
1486725610.9433227, 56, -238, -10, 212, 62, -5, -9, -9, 1280, 720
1486725610.9442937, 47, -244, -11, 201, 63, -15, -14, -16, 1280, 720
1486725610.9580312, 38, -244, -11, 207, 53, -18, -13, -12, 1280, 720
1486725610.9584272, 45, -251, -10, 234, 68, -18, -19, -15, 1280, 720
1486725610.9593658, 52, -254, -11, 238, 69, -11, -15, -14, 1280, 720
1486725610.9655972, 50, -257, -12, 221, 55, -12, -11, -10, 1280, 720
1486725610.965988, 28, -252, -12, 208, 55, -5, -15, -13, 1280, 720
1486725610.9669204, 25, -258, -11, 220, 59, -7, -16, -7, 1280, 720
1486725610.9804716, 30, -260, -11, 235, 69, -7, -16, -20, 1280, 720
1486725610.9808347, 40, -257, -11, 231, 71, -10, -16, -11, 1280, 720
1486725610.9817734, 38, -248, -10, 217, 44, -20, -21, -13, 1280, 720
1486725610.9955657, 24, -251, -10, 209, 57, -14, -12, -12, 1280, 720
1486725610.996205, 21, -247, -11, 216, 68, -15, -11, -10, 1280, 720
1486725610.9968379, 26, -248, -12, 235, 83, -18, -19, -15, 1280, 720
1486725611.0030735, 34, -248, -11, 237, 70, -12, -17, -15, 1280, 720
1486725611.0034645, 20, -251, -11, 216, 57, -11, -13, -18, 1280, 720
1486725611.004069, 21, -248, -11, 207, 59, -5, -15, -13, 1280, 720
1486725611.0179486, 12, -249, -10, 223, 71, -16, -14, -16, 1280, 720
1486725611.0184128, 28, -251, -11, 247, 84, -14, -10, -15, 1280, 720
1486725611.0193756, 29, -251, -10, 241, 78, -14, -18, -19, 1280, 720
1486725611.0335777, 17, -248, -10, 212, 63, -9, -9, -16, 1280, 720
1486725611.0336952, 9, -249, -10, 201, 59, -12, -11, -18, 1280, 720
1486725611.034358, 21, -244, -10, 213, 76, -14, -15, -11, 1280, 720
1486725611.0405657, 24, -245, -11, 228, 79, -23, -19, -15, 1280, 720
1486725611.04095, 37, -247, -10, 221, 73, -11, -18, -13, 1280, 720
1486725611.0416548, 27, -243, -11, 200, 52, -16, -15, -11, 1280, 720
1486725611.0556848, 14, -241, -10, 196, 64, -16, -16, -13, 1280, 720
1486725611.0560853, 18, -241, -10, 209, 66, -11, -10, -9, 1280, 720
1486725611.056889, 35, -237, -11, 221, 76, -10, -11, -16, 1280, 720
1486725611.0710695, 46, -236, -11, 212, 60, -12, -12, -13, 1280, 720
1486725611.0711672, 32, -240, -11, 193, 52, -23, -18, -15, 1280, 720
1486725611.0717847, 39, -233, -10, 190, 65, -12, -11, -18, 1280, 720
1486725611.0780792, 29, -239, -10, 215, 70, -16, -10, -20, 1280, 720
1486725611.0784562, 37, -240, -11, 222, 75, -19, -15, -20, 1280, 720
1486725611.0794468, 41, -237, -10, 211, 66, -12, -11, -13, 1280, 720
1486725611.0930264, 37, -236, -11, 192, 59, -3, -9, -22, 1280, 720
1486725611.0934215, 29, -237, -11, 191, 50, -17, -18, -9, 1280, 720
1486725611.094761, 19, -234, -10, 218, 79, -17, -16, -12, 1280, 720
1486725611.1080608, 2, -241, -10, 243, 75, -14, -12, -15, 1280, 720
1486725611.1084476, 13, -232, -11, 211, 48, -13, -15, -13, 1280, 720
1486725611.109388, 20, -198, -10, 155, 32, -23, -18, -15, 1280, 720
1486725611.1160376, 4, -188, -11, 147, 40, -12, -7, -12, 1280, 720
1486725611.1161418, -2, -162, -11, 146, 54, -9, -7, -10, 1280, 720
1486725611.1168945, -39, -159, -11, 143, 57, -8, -7, -14, 1280, 720
1486725611.1306796, -47, -133, -11, 101, 52, -7, -19, -15, 1280, 720
1486725611.131084, -108, -118, -11, 62, 42, -4, -9, -10, 1280, 720
1486725611.131605, -122, -91, -11, 50, 50, -12, -12, -13, 1280, 720
1486725611.145564, -152, -80, -10, 55, 46, -14, -14, -19, 1280, 720
1486725611.1460052, -142, -57, -10, 39, 49, -11, -6, -18, 1280, 720
1486725611.1467788, -161, -40, -9, -4, 34, -15, -16, -3, 1280, 720
1486725611.1473265, -195, -21, -10, 155, 32, -11, -12, -11, 1280, 720
1486725611.1530619, -185, -8, -12, -43, 23, -15, -10, -20, 1280, 720
1486725611.1534526, -190, -2, -11, -38, 20, -17, -8, -16, 1280, 720
1486725611.1544006, -162, 4, -11, -36, 21, -8, -7, -14, 1280, 720
1486725611.1681657, -166, 5, -11, -53, 5, -8, -13, -9, 1280, 720
1486725611.168555, -164, 9, -10, -70, 14, -7, -13, -11, 1280, 720
1486725611.169065, -164, -91, -11, 50, 50, -12, -12, -13, 1280, 720
1486725611.1830842, -122, 16, -11, -42, 9, -18, -11, -17, 1280, 720
1486725611.1834738, -113, 9, -11, -39, -9, -16, -14, -10, 1280, 720
1486725611.1843765, -118, 11, -11, -67, 34, -15, -16, -3, 1280, 720
1486725611.1909473, -116, 15, -10, -72, -7, -14, -10, -8, 1280, 720
1486725611.1910121, -110, 17, -12, -64, -3, -12, -12, -12, 1280, 720
1486725611.1918666, -89, 15, -11, -41, 6, -17, -8, -16, 1280, 720
1486725611.2056477, -75, 8, -10, -44, 3, -25, -16, -15, 1280, 720
1486725611.2060661, -81, 9, -11, -62, -9, -11, -11, -6, 1280, 720
1486725611.2068677, -90, 14, -12, -71, -16, -12, -13, -11, 1280, 720
1486725611.2205575, -90, 18, -11, -54, -3, -9, -13, -17, 1280, 720
1486725611.2209363, -67, 15, -11, -42, 4, -13, -13, -18, 1280, 720
1486725611.2218955, -61, 11, -11, -56, -16, -10, -7, -10, 1280, 720
1486725611.2279727, -73, 19, -11, -79, -40, -12, -13, -15, 1280, 720
1486725611.2286994, -82, 21, -10, -84, -21, -16, -16, -19, 1280, 720
1486725611.2295568, -79, 25, -10, -64, -14, -10, -13, -9, 1280, 720
1486725611.2505844, -61, 17, -10, -44, -2, -8, -9, -12, 1280, 720
1486725611.2509854, -59, 16, -11, -50, -9, -6, -14, -8, 1280, 720
1486725611.2517824, -67, 17, -11, -68, -17, -12, -11, -6, 1280, 720
1486725611.2527618, -69, 19, -11, -67, -20, -15, -18, -18, 1280, 720
1486725611.2579331, -79, 21, -9, -54, -8, -9, -11, -12, 1280, 720
1486725611.258674, -56, 17, -11, -40, -7, -11, -13, -18, 1280, 720
1486725611.2654889, -57, 16, -9, -45, -8, -13, -21, -10, 1280, 720
1486725611.265875, -64, 11, -11, -61, -14, -13, -16, -14, 1280, 720
1486725611.266639, -81, 15, -11, -59, -20, -7, -13, -19, 1280, 720
1486725611.2806118, -76, 16, -9, -46, -6, -17, -17, -15, 1280, 720
1486725611.281, -62, 20, -10, -37, -15, -17, -15, -7, 1280, 720
1486725611.2819476, -58, 16, -10, -51, -5, -2, -10, -13, 1280, 720
1486725611.295574, -73, 18, -12, -74, -22, -10, -19, -21, 1280, 720
1486725611.2960196, -84, 24, -11, -71, -17, -14, -14, -22, 1280, 720
1486725611.2970302, -66, 12, -10, -51, -5, -9, -11, -12, 1280, 720
1486725611.3030026, -67, 15, -11, -44, -9, -17, -14, -16, 1280, 720
1486725611.3032646, -61, 13, -10, -58, -17, -14, -13, -16, 1280, 720
1486725611.304411, -77, 16, -11, -79, -28, -17, -16, -14, 1280, 720
1486725611.3180304, -85, 12, -11, -63, -16, -11, -14, -23, 1280, 720
1486725611.3184302, -68, 12, -10, -42, -11, -13, -10, -13, 1280, 720
1486725611.3194149, -66, 8, -11, -33, -2, -15, -17, -7, 1280, 720
1486725611.3329961, -64, 8, -10, -52, -15, -15, -15, -17, 1280, 720
1486725611.333398, -70, 13, -11, -64, -16, -14, -16, -11, 1280, 720
1486725611.334273, -77, 9, -10, -61, -13, -21, -8, -1, 1280, 720
1486725611.340554, -65, 13, -11, -45, -4, -10, -8, -13, 1280, 720
1486725611.3409438, -49, 7, -11, -23, 3, -9, -10, -10, 1280, 720
1486725611.341784, -65, -6, -10, -33, -6, -13, -18, -19, 1280, 720
1486725611.3426495, -77, 16, -11, -79, -28, -17, -17, -12, 1280, 720
1486725611.355915, -75, -8, -11, -35, -6, -15, -9, -10, 1280, 720
1486725611.3559794, -62, -8, -9, -17, 9, -14, -15, -11, 1280, 720
1486725611.3569462, -49, 8, -11, -33, -2, -15, -17, -18, 1280, 720
1486725611.370649, -63, -10, -10, -39, -10, -13, -12, -7, 1280, 720
1486725611.370973, -65, -4, -11, -43, -9, -9, -9, -9, 1280, 720
1486725611.371677, -63, -10, -11, -61, -13, -21, -8, -1, 1280, 720
1486725611.3781254, -67, -12, -12, -8, 14, -15, -12, -8, 1280, 720
1486725611.3856466, -48, -8, -10, -13, -6, -13, -12, -8, 1280, 720
1486725611.3860202, -39, -3, -11, -39, -6, -13, -18, -19, 1280, 720
1486725611.3930712, -71, -5, -11, -47, -4, -6, -13, -17, 1280, 720
1486725611.3934815, -71, -10, -11, -31, -3, -14, -15, -12, 1280, 720
1486725611.3943756, -55, -12, -11, -15, 3, -14, -15, -11, 1280, 720
1486725611.4079018, -45, -10, -10, -25, -3, -16, -22, -26, 1280, 720
1486725611.4086585, -56, -7, -11, -50, -24, -15, -12, -16, 1280, 720
1486725611.409253, -66, -6, -10, -53, -15, -9, -9, -9, 1280, 720
1486725611.4159212, -60, -3, -11, -37, -2, -19, -15, -17, 1280, 720
1486725611.4159892, -56, -3, -11, -22, -3, -17, -15, -11, 1280, 720
1486725611.4166496, -49, -5, -10, -28, -1, -11, -12, -8, 1280, 720
1486725611.4306767, -46, -4, -11, -54, -19, -14, -16, -12, 1280, 720
1486725611.4311278, -59, -3, -12, -51, -18, -18, -19, -11, 1280, 720
1486725611.4318402, -57, -1, -10, -30, -8, -20, -13, -13, 1280, 720
1486725611.4455366, -45, -2, -10, -16, -4, -19, -18, -15, 1280, 720
1486725611.4459267, -46, 0, -10, -28, -16, -14, -21, -8, 1280, 720
1486725611.4467843, -48, -3, -11, -45, -16, -15, -12, -16, 1280, 720
1486725611.4529457, -66, 1, -11, -41, -18, -14, -9, -17, 1280, 720
1486725611.4537334, -61, -2, -11, -23, -11, -18, -10, -13, 1280, 720
1486725611.4543529, -49, -4, -11, -11, 1, -7, -15, -11, 1280, 720
1486725611.4680483, -50, -1, -10, -30, -7, -9, -10, -15, 1280, 720
1486725611.4684389, -57, 0, -11, -50, -17, -14, -16, -9, 1280, 720
1486725611.4694254, -71, -2, -10, -38, -11, -15, -9, -11, 1280, 720
1486725611.4830587, -53, 4, -11, -21, -7, -16, -6, -11, 1280, 720
1486725611.483457, -39, 6, -11, -18, -7, -10, -8, -11, 1280, 720
1486725611.4846275, -46, 5, -10, -39, -18, -14, -8, -8, 1280, 720
1486725611.490603, -57, 11, -9, -60, -26, -12, -14, -9, 1280, 720
1486725611.4910004, -73, 9, -10, -52, -19, -8, -9, -11, 1280, 720
1486725611.4918551, -56, 6, -11, -31, -12, -8, -9, -8, 1280, 720
1486725611.5056279, -45, 4, -11, -22, -10, -12, -18, -14, 1280, 720
1486725611.5060184, -55, 3, -11, -39, -24, -8, -20, -7, 1280, 720
1486725611.5068574, -66, -1, -10, -51, -21, -5, -16, -9, 1280, 720
1486725611.5206454, -65, -4, -10, -35, -7, -15, -17, -13, 1280, 720
1486725611.5210552, -61, -11, -11, -13, -3, -11, -17, -16, 1280, 720
1486725611.5217342, -40, -17, -11, -10, -11, -13, -8, -11, 1280, 720
1486725611.5280447, -40, -8, -10, -28, -24, -15, -17, -5, 1280, 720
1486725611.5283961, -46, -2, -10, -45, -32, -12, -13, -14, 1280, 720
1486725611.529299, -55, -2, -10, -37, -19, -10, -19, -11, 1280, 720
1486725611.5431015, -47, -3, -11, -14, -9, -12, -16, -17, 1280, 720
1486725611.5434856, -35, -3, -10, -17, -13, -15, -18, -8, 1280, 720
1486725611.5444279, -39, -1, -10, -39, -16, -8, -16, -14, 1280, 720
1486725611.558073, -47, -2, -11, -52, -18, -5, -13, -17, 1280, 720
1486725611.5584648, -51, 4, -10, -35, -16, -7, -18, -19, 1280, 720
1486725611.5592365, -51, -5, -11, -13, -10, -11, -17, -13, 1280, 720
1486725611.5655653, -33, -3, -9, -19, -15, -8, -12, -8, 1280, 720
1486725611.5663054, -41, -3, -10, -41, -32, -9, -22, -21, 1280, 720
1486725611.5666394, -61, -5, -11, -52, -31, -12, -13, -14, 1280, 720
1486725611.5805364, -43, 0, -11, -39, -12, -15, -20, -13, 1280, 720
1486725611.5809274, -30, -4, -10, -20, -10, -10, -15, -9, 1280, 720
1486725611.5819426, -23, -9, -10, -32, -25, -11, -15, -12, 1280, 720
1486725611.5955894, -30, -5, -12, -55, -35, -15, -13, -12, 1280, 720
1486725611.5959804, -56, -6, -11, -55, -33, -16, -8, -6, 1280, 720
1486725611.5968888, -54, -2, -10, -42, -15, -14, -20, -14, 1280, 720
1486725611.6030939, -42, 0, -11, -24, -16, -13, -16, -15, 1280, 720
1486725611.6035056, -30, -4, -11, -38, -24, -11, -21, -13, 1280, 720
1486725611.6043305, -41, -3, -10, -57, -34, -8, -14, -7, 1280, 720
1486725611.6048646, -52, -2, -11, -52, -31, -14, -25, -21, 1280, 720
1486725611.618007, -47, -5, -11, -31, 1, -4, -20, -17, 50, 50
1486725611.6183953, -41, -6, -10, -20, -4, -5, -18, -15, 50, 50
1486725611.6193225, -39, -7, -11, -39, -24, -11, -15, -12, 50, 50
1486725611.633027, -42, -5, -11, -55, -34, -13, -15, -12, 50, 50
1486725611.6333556, -57, -1, -11, -51, -33, -8, -13, -9, 50, 50
1486725611.6341314, -37, -2, -10, -42, -15, -14, -20, -14, 50, 50
1486725611.6406045, -31, -9, -10, -26, -22, -7, -14, -16, 50, 50
1486725611.6410022, -46, -5, -9, -45, -30, -11, -21, -13, 50, 50
1486725611.6556523, -57, -5, -11, -35, -18, -6, -13, -9, 50, 50
1486725611.6560395, -54, -5, -11, -17, -14, -12, -8, -6, 50, 50
1486725611.656932, -37, -7, -11, -15, -14, -15, -20, -17, 50, 50
1486725611.6706116, -34, -11, -11, -30, -24, -12, -23, -12, 50, 50
1486725611.6709883, -41, -7, -10, -46, -30, -14, -25, -5, 50, 50
1486725611.6717048, -49, -8, -10, -37, -25, -9, -13, -17, 50, 50
1486725611.6781132, -53, -11, -11, -14, -16, -11, -19, -18, 50, 50
1486725611.6784918, -29, -5, -10, -13, -17, -10, -14, -12, 50, 50
1486725611.679169, -40, -10, -10, -30, -34, -10, -25, -12, 50, 50
1486725611.693044, -43, -5, -10, -40, -33, -10, -17, -17, 50, 50
1486725611.693416, -47, -2, -10, -31, -19, -7, -11, -13, 50, 50
1486725611.6944656, -46, -8, -11, -9, -11, -11, -8, -6, 50, 50
1486725611.7080696, -22, -9, -10, -12, -12, -8, -15, -17, 50, 50
1486725611.7084541, -26, -4, -10, -34, -38, -10, -19, -9, 50, 50
1486725611.7093842, -37, -8, -10, -44, -30, -12, -25, -5, 50, 50
1486725611.7155857, -49, -13, -10, -26, -25, -15, -10, -23, 50, 50
1486725611.715962, -42, -7, -11, -7, -13, -22, -20, -14, 50, 50
1486725611.7169418, -34, -8, -12, -12, -23, -12, -12, -7, 50, 50
1486725611.7310321, -29, -7, -10, -31, -33, -9, -20, -8, 50, 50
1486725611.7313905, -43, -2, -10, -42, -31, -7, -14, -7, 50, 50
1486725611.7317338, -41, 2, -10, -27, -22, -7, -11, -13, 50, 50
1486725611.7455242, -37, -3, -9, -9, -13, -12, -14, -16, 50, 50
1486725611.745913, -23, -6, -10, -12, -15, -9, -12, -15, 50, 50
1486725611.7467127, -25, -11, -10, -27, -20, -10, -19, -9, 50, 50
1486725611.752937, -44, -6, -11, -36, -23, -17, -15, -11, 50, 50
1486725611.7536693, -43, -1, -10, -25, -9, -12, -10, -13, 50, 50
1486725611.7546234, -30, -5, -11, -5, -12, -19, -20, -14, 50, 50
1486725611.7680607, -13, -6, -11, -17, -17, -6, -15, -17, 50, 50
1486725611.7685122, -23, 0, -11, -38, -38, -10, -17, -8, 50, 50
1486725611.7693968, -39, -3, -11, -42, -28, -3, -8, -6, 50, 50
1486725611.7830796, -36, 1, -11, -27, -21, -16, -12, -12, 50, 50
1486725611.7833862, -20, -3, -10, -4, -11, -15, -12, -15, 50, 50
1486725611.7844493, -15, -6, -11, -16, -23, -10, -18, -16, 50, 50
1486725611.7906284, -21, -6, -11, -35, -24, -12, -10, -13, 50, 50
1486725611.7910447, -30, -4, -11, -37, -21, -2, -7, -7, 50, 50
1486725611.7918966, -32, -4, -10, -19, -7, -12, -10, -13, 50, 50
1486725611.8055623, -18, -5, -10, -6, -3, -16, -19, -10, 50, 50
1486725611.8059208, -21, -10, -11, -16, -8, -3, -24, -15, 50, 50
1486725611.8068223, -21, -9, -10, -33, -19, -1, -12, -8, 50, 50
1486725611.820553, -35, -7, -11, -30, -9, -12, -21, -12, 50, 50
1486725611.8210685, -34, -7, -9, -8, -6, -6, -2, -13, 50, 50
1486725611.8218653, -15, -11, -11, 0, -5, -12, -19, -18, 50, 50
1486725611.8280866, -12, -5, -11, -21, -11, -8, -16, -7, 50, 50
1486725611.8285065, -17, -5, -11, -37, -24, -11, -14, -16, 50, 50
1486725611.8295, -35, -5, -11, -32, -11, -13, -15, -17, 50, 50
1486725611.8301733, -14, -1, -10, -19, -7, -11, -14, -9, 50, 50
1486725611.8430336, -7, 0, -11, -3, 0, -10, -13, -19, 50, 50
1486725611.8434308, -6, -4, -11, -11, -3, -6, -18, -16, 50, 50
1486725611.8441453, -23, -8, -10, -33, -19, -1, -12, -12, 50, 50
1486725611.8583994, -37, -4, -10, -19, -4, -12, -14, -10, 50, 50
1486725611.8586547, -34, -10, -11, 19, 2, -13, -9, -2, 50, 50
1486725611.859434, -53, -25, -11, 26, -5, -12, -19, -18, 50, 50
1486725611.8655772, -34, -6, -10, -16, -28, -10, -10, -14, 50, 50
1486725611.8659484, -50, 13, -10, -45, -28, -19, -15, -13, 50, 50
1486725611.8669078, -63, 19, -11, -52, -18, -13, -15, -17, 50, 50
1486725611.8806016, -91, 41, -11, -46, -11, -21, -14, -14, 50, 50
1486725611.8809903, -105, 52, -10, -66, -12, -19, -12, -10, 50, 50
1486725611.8816376, -126, 75, -10, -99, -35, -10, -18, -16, 50, 50
1486725611.8956993, -191, 85, -11, -122, -25, -14, -14, -12, 50, 50
1486725611.8961124, -197, 117, -10, -128, -25, -19, -17, -11, 50, 50
1486725611.8968906, -216, 119, -11, -127, -29, -18, -9, -2, 50, 50
1486725611.9032795, -211, 142, -11, -137, -32, -14, -10, -13, 50, 50
1486725611.9036722, -221, 153, -10, -170, -49, -15, -15, -14, 50, 50
1486725611.9041464, -239, 170, -10, -192, -55, -9, -12, -9, 50, 50
1486725611.9180822, -245, 183, -11, -186, -50, -11, -14, -12, 50, 50
1486725611.9184563, -223, 185, -12, -175, -41, -8, -18, -15, 50, 50
1486725611.9194503, -209, 208, -11, -194, -61, -19, -12, -10, 50, 50
1486725611.9330955, -220, 206, -10, -209, -68, -9, -13, -15, 50, 50
1486725611.9334996, -214, 213, -10, -217, -79, -19, -13, -12, 50, 50
1486725611.9344525, -203, 218, -11, -198, -69, -19, -17, -11, 50, 50
1486725611.9405913, -186, 217, -11, -172, -58, -18, -15, -12, 50, 50
1486725611.9409835, -164, 216, -12, -176, -64, -9, -11, -13, 50, 50
1486725611.9421175, -163, 218, -11, -191, -87, -16, -17, -14, 50, 50
1486725611.9555993, -160, 213, -10, -195, -77, -8, -14, -14, 50, 50
1486725611.9559875, -153, 222, -11, -179, -59, -5, -12, -3, 50, 50
1486725611.9569757, -140, 225, -10, -168, -68, -14, -21, -9, 50, 50
1486725611.9705317, -129, 227, -10, -181, -75, -18, -17, -8, 50, 50
1486725611.9707673, -128, 231, -10, -200, -83, -10, -11, -14, 50, 50
1486725611.9719982, -133, 227, -11, -200, -81, -16, -16, -13, 50, 50
1486725611.978062, -133, 226, -11, -178, -58, -10, -10, -15, 50, 50
1486725611.9784236, -118, 226, -11, -164, -67, -16, -8, -14, 50, 50
1486725611.9792063, -115, 226, -9, -176, -75, -9, -11, -13, 50, 50
1486725611.9930341, -124, 224, -11, -193, -86, -6, -10, -10, 50, 50
1486725611.9934118, -131, 228, -11, -188, -90, -11, -12, -9, 50, 50
1486725611.9944873, -128, 231, -11, -167, -59, -10, -11, -14, 50, 50
1486725612.0081072, -109, 224, -10, -160, -69, -17, -15, -11, 50, 50
1486725612.008434, -111, 230, -10, -184, -92, -14, -18, -19, 50, 50
1486725612.0094204, -104, 232, -11, -201, -91, -20, -17, -14, 50, 50
1486725612.0160918, -115, 221, -11, -192, -83, -16, -15, -18, 50, 50
1486725612.0164254, -107, 228, -10, -170, -75, -16, -13, -17, 50, 50
1486725612.016728, -98, 229, -11, -167, -80, -11, -14, -14, 50, 50
1486725612.0306146, -80, 232, -9, -183, -90, -13, -15, -8, 50, 50
1486725612.030977, -98, 231, -11, -197, -94, -9, -16, -9, 50, 50
1486725612.0319943, -105, 236, -10, -184, -89, -11, -12, -9, 50, 50
1486725612.0456483, -86, 230, -10, -159, -70, -15, -7, -13, 50, 50
1486725612.046015, -78, 228, -10, -155, -78, -15, -15, -12, 50, 50
1486725612.046947, -83, 219, -11, -163, -87, -14, -15, -15, 50, 50
1486725612.0531077, -100, 217, -11, -178, -92, -18, -14, -12, 50, 50
1486725612.0533304, -96, 222, -11, -174, -81, -10, 1, -8, 50, 50
1486725612.0544581, -85, 220, -11, -154, -68, -11, -13, -21, 50, 50
1486725612.068094, -79, 225, -10, -158, -69, -16, -16, -14, 50, 50
1486725612.0685296, -84, 234, -12, -183, -95, -17, -9, -14, 50, 50
1486725612.069423, -99, 232, -10, -193, -92, -15, -7, -6, 50, 50
1486725612.0700228, -105, 236, -10, -184, -89, -12, -13, -17, 50, 50
1486725612.0830867, -84, 227, -10, -154, -71, -11, -1, -12, 50, 50
1486725612.0834894, -80, 225, -11, -161, -76, -5, -6, -12, 50, 50
1486725612.085162, -78, 229, -11, -163, -87, -14, -15, -15, 50, 50
1486725612.0905695, -79, 232, -9, -188, -96, -19, -11, -14, 50, 50
1486725612.0909617, -82, 230, -12, -174, -82, -23, -10, -13, 50, 50
1486725612.092127, -72, 231, -11, -154, -68, -11, -13, -21, 50, 50
1486725612.1056259, -68, 230, -11, -164, -75, -14, -10, -9, 50, 50
1486725612.105851, -81, 223, -11, -181, -76, -6, -6, -14, 50, 50
1486725612.106982, -90, 219, -11, -189, -92, -15, -7, -6, 50, 50
1486725612.1206093, -80, 226, -11, -174, -87, -13, -9, -9, 50, 50
1486725612.120968, -77, 222, -11, -160, -85, -18, -16, -3, 50, 50
1486725612.121973, -72, 222, -10, -164, -88, -5, -6, -12, 50, 50
1486725612.128185, -76, 220, -10, -187, -100, -16, -18, -15, 50, 50
1486725612.1327639, -93, 211, -10, -192, -101, -19, -14, -13, 50, 50
1486725612.1367085, -80, 215, -11, -177, -83, -18, -10, -13, 50, 50
1486725612.1464086, -81, 216, -9, -164, -83, -18, -19, -21, 50, 50
1486725612.14648, -70, 216, -12, -174, -84, -15, -17, -8, 50, 50
1486725612.1484542, -82, 218, -11, -196, -100, -15, -13, -14, 50, 50
1486725612.158305, -93, 219, -11, -192, -95, -9, -3, -13, 50, 50
1486725612.1587763, -87, 217, -11, -169, -77, -13, -7, -20, 50, 50
1486725612.1644711, -72, 207, -12, -158, -74, -22, -22, -17, 50, 50
1486725612.166593, -83, 208, -10, -167, -92, -19, -18, -17, 50, 50
1486725612.17378, -82, 213, -11, -192, -92, -13, -18, -20, 50, 50
1486725612.1746376, -86, 215, -11, -189, -92, -11, -18, -11, 50, 50
1486725612.1808577, -83, 213, -10, -167, -78, -18, -14, -20, 50, 50
1486725612.1814778, -85, 210, -10, -160, -65, -11, -10, -16, 50, 50
1486725612.1847398, -83, 206, -10, -170, -80, -13, -17, -8, 50, 50
1486725612.196616, -86, 212, -10, -182, -88, -17, -4, -6, 50, 50
1486725612.1991813, -103, 208, -10, -171, -81, -20, -14, -16, 50, 50
1486725612.2008514, -90, 205, -10, -154, -59, -19, -13, -20, 50, 50
1486725612.2040782, -85, 198, -10, -146, -64, -8, -15, -12, 50, 50
1486725612.2049263, -81, 203, -10, -169, -85, -19, -20, -23, 50, 50
1486725612.2056153, -87, 204, -10, -184, -91, -10, -17, -7, 50, 50
1486725612.2191262, -93, 202, -12, -185, -87, -12, -9, -11, 50, 50
1486725612.2218783, -76, 204, -10, -157, -77, -20, -15, -8, 50, 50
1486725612.2219489, -71, 204, -10, -155, -79, -11, -10, -16, 50, 50
1486725612.2377982, -74, 205, -11, -171, -83, -13, -13, -7, 50, 50
1486725612.2378693, -87, 202, -11, -188, -90, -10, -16, -9, 50, 50
1486725612.2381139, -92, 198, -11, -176, -72, -20, -14, -16, 50, 50
1486725612.2434707, -82, 204, -10, -154, -71, -13, -17, -12, 50, 50
1486725612.2478554, -72, 203, -10, -150, -82, -22, -21, -15, 50, 50
1486725612.2536638, -74, 195, -10, -170, -92, -11, -20, -23, 50, 50
1486725612.2559032, -76, 194, -10, -180, -88, -9, -20, -13, 50, 50
1486725612.256423, -85, 197, -11, -169, -81, -9, -11, -6, 50, 50
1486725612.2657428, -83, 196, -10, -147, -66, -15, -14, -8, 50, 50
1486725612.2716289, -72, 189, -11, -151, -71, -7, -14, -9, 50, 50
1486725612.271702, -68, 191, -11, -169, -84, -6, -14, -13, 50, 50
1486725612.2763965, -76, 199, -10, -183, -89, -10, -9, -9, 50, 50
1486725612.2789917, -84, 191, -11, -161, -71, -12, -13, -16, 50, 50
1486725612.2794495, -68, 189, -11, -147, -58, -11, -13, -23, 50, 50
1486725612.2821922, -68, 186, -11, -148, -68, -11, -14, -14, 50, 50
1486725612.2878273, -73, 195, -10, -170, -92, -11, -20, -12, 50, 50
1486725612.293868, -86, 185, -10, -176, -87, -12, -11, -13, 50, 50
1486725612.2986357, -86, 187, -11, -154, -70, -15, -11, -17, 50, 50
1486725612.3044035, -86, 180, -10, -147, -66, -15, -14, -8, 50, 50
1486725612.308086, -71, 183, -10, -143, -72, -8, -18, -22, 50, 50
1486725612.3084447, -75, 187, -10, -168, -76, -12, -20, -10, 50, 50
1486725612.3094182, -82, 190, -10, -183, -89, -10, -9, -9, 50, 50
1486725612.3157592, -83, 183, -11, -137, -56, -18, -13, -21, 50, 50
1486725612.3165634, -76, 174, -12, -123, -57, -17, -20, -22, 50, 50
1486725612.3179498, -63, 180, -11, -134, -60, -11, -14, -14, 50, 50
1486725612.3306847, -73, 172, -10, -153, -69, -8, -15, -13, 50, 50
1486725612.3309805, -87, 177, -11, -150, -70, -8, -11, -14, 50, 50
1486725612.333254, -81, 179, -11, -154, -70, -15, -11, -17, 50, 50
1486725612.3456635, -71, 176, -12, -120, -56, -13, -4, -12, 50, 50
1486725612.3465865, -66, 177, -12, -132, -81, -18, -13, -10, 50, 50
1486725612.3476777, -72, 176, -10, -148, -76, -12, -20, -10, 50, 50
1486725612.3531384, -90, 176, -10, -147, -73, -15, -8, -17, 50, 50
1486725612.3540876, -83, 172, -10, -130, -66, -13, -1, -13, 50, 50
1486725612.3562775, -68, 167, -11, -121, -61, -17, -20, -22, 50, 50
1486725612.3682334, -61, 177, -10, -138, -72, -13, -13, -19, 50, 50
1486725612.369064, -69, 172, -10, -155, -62, -6, -16, -14, 50, 50
1486725612.370003, -88, 174, -10, -144, -68, -19, -12, -18, 50, 50
1486725612.3833086, -79, 175, -10, -129, -57, -12, -7, -10, 50, 50
1486725612.384104, -67, 172, -10, -121, -55, -11, -17, -14, 50, 50
1486725612.3865235, -60, 168, -10, -141, -69, -11, -16, -14, 50, 50
1486725612.390674, -76, 173, -10, -150, -81, -14, -13, -14, 50, 50
1486725612.391612, -92, 167, -11, -145, -65, -7, -7, -14, 50, 50
1486725612.3926334, -70, 170, -10, -121, -57, -13, -1, -13, 50, 50
1486725612.4065952, -63, 166, -11, -120, -62, -13, -12, -14, 50, 50
1486725612.406701, -58, 175, -11, -147, -78, -15, -13, -15, 50, 50
1486725612.4075491, -73, 171, -10, -159, -75, -11, -15, -14, 50, 50
1486725612.420601, -72, 165, -10, -147, -68, -18, -11, -14, 50, 50
1486725612.4216022, -72, 166, -10, -128, -55, -9, -11, -15, 50, 50
1486725612.4224799, -55, 164, -12, -127, -55, -8, -7, -11, 50, 50
1486725612.4281578, -63, 165, -10, -147, -68, -12, -15, -8, 50, 50
1486725612.4290817, -77, 162, -10, -153, -63, -8, -10, -11, 50, 50
1486725612.429767, -73, 164, -11, -141, -65, -8, -18, -5, 50, 50
1486725612.4431362, -67, 161, -11, -119, -51, -13, -10, -16, 50, 1390
1486725612.4440916, -58, 160, -11, -121, -61, -15, -14, -10, 50, 1390
1486725612.4463234, -57, 165, -10, -140, -70, -15, -13, -15, 50, 1390
1486725612.458169, -79, 161, -10, -150, -72, -19, -16, -12, 50, 1390
1486725612.4586496, -77, 162, -10, -132, -57, -9, -15, -18, 50, 1390
1486725612.4613214, -61, 161, -10, -111, -33, -14, -11, -15, 50, 1390
1486725612.4657974, -58, 157, -10, -120, -50, -18, -21, -17, 50, 1390
1486725612.4664898, -66, 166, -10, -137, -61, -9, -5, -2, 50, 1390
1486725612.468662, -80, 160, -10, -142, -65, -9, -14, -11, 50, 1390
1486725612.4806736, -78, 159, -11, -123, -51, -15, -14, -14, 50, 1390
1486725612.4816263, -72, 157, -11, -106, -51, -16, -19, -16, 50, 1390
1486725612.4833786, -56, 155, -10, -112, -56, -11, -11, -16, 50, 1390
1486725612.495729, -60, 154, -11, -129, -56, -15, -16, -16, 50, 1390
1486725612.496615, -80, 151, -11, -133, -57, -7, -9, -11, 50, 1390
1486725612.4989462, -80, 154, -11, -118, -52, -17, -15, -18, 50, 1390
1486725612.5030613, -56, 154, -10, -109, -50, -13, -15, -20, 50, 1390
1486725612.5040944, -47, 152, -10, -112, -57, -13, -16, -15, 50, 1390
1486725612.5049675, -58, 153, -10, -135, -68, -11, -9, -13, 50, 1390
1486725612.518166, -72, 153, -12, -135, -53, -13, -7, -16, 50, 1390
1486725612.5201895, -67, 156, -11, -114, -39, -16, -8, -13, 50, 1390
1486725612.5210714, -62, 154, -9, -104, -46, -14, -11, -19, 50, 1390
1486725612.5339594, -65, 155, -10, -120, -63, -9, -8, -11, 50, 1390
1486725612.5345674, -80, 160, -11, -142, -70, -8, -12, -15, 50, 1390
1486725612.5361285, -97, 153, -10, -134, -66, -10, -16, -12, 50, 1390
1486725612.5361996, -89, 154, -11, -118, -52, -17, -9, -7, 50, 1390
1486725612.5407064, -79, 147, -11, -107, -61, -15, -11, -10, 50, 1390
1486725612.541548, -72, 151, -10, -118, -65, -11, -14, -8, 50, 1390
1486725612.542252, -71, 146, -11, -136, -72, -11, -9, -13, 50, 1390
1486725612.555742, -85, 144, -10, -129, -69, -14, -12, -14, 50, 1390
1486725612.5580943, -76, 146, -11, -105, -49, -6, -13, -8, 50, 1390
1486725612.5635684, -72, 154, -9, -104, -46, -14, -11, -19, 50, 1390
1486725612.571738, -71, 139, -11, -118, -63, -13, -13, -13, 50, 1390
1486725612.572381, -81, 145, -12, -137, -83, -18, -16, -14, 50, 1390
1486725612.5724523, -83, 153, -11, -131, -66, -10, -16, -12, 50, 1390
1486725612.5784543, -78, 147, -11, -110, -48, -13, -11, -13, 50, 1390
1486725612.578953, -70, 148, -10, -106, -53, -6, -5, -11, 50, 1390
1486725612.579214, -67, 146, -11, -123, -63, -12, -8, -8, 50, 1390
1486725612.5932333, -81, 143, -10, -134, -76, -10, -11, -15, 50, 1390
1486725612.5942469, -86, 141, -10, -122, -51, -14, -7, -12, 50, 1390
1486725612.5946174, -77, 139, -12, -92, -46, -15, -16, -14, 50, 1390
1486725612.6082613, -62, 135, -11, -95, -59, -14, -14, -12, 50, 1390
1486725612.6088521, -69, 136, -10, -116, -69, -9, -18, -16, 50, 1390
1486725612.6103652, -72, 145, -12, -131, -62, -8, -6, -6, 50, 1390
1486725612.6157308, -69, 143, -11, -124, -64, -15, -14, -9, 50, 1390
1486725612.6167157, -63, 140, -11, -106, -49, -11, -9, -8, 50, 1390
1486725612.6186237, -58, 134, -11, -104, -63, -6, -5, -11, 50, 1390
1486725612.630606, -54, 145, -11, -130, -70, -11, -11, -6, 50, 1390
1486725612.6309106, -70, 145, -10, -138, -65, -9, -14, -11, 50, 1390
1486725612.6365657, -79, 144, -10, -117, -53, -12, -5, -12, 50, 1390
1486725612.6456673, -66, 137, -11, -96, -48, -11, -8, -12, 50, 1390
1486725612.6467922, -62, 126, -11, -96, -64, -11, -6, -17, 50, 1390
1486725612.6474154, -58, 132, -10, -120, -60, -3, -12, -16, 50, 1390
1486725612.6532018, -72, 132, -11, -131, -70, -17, -16, -8, 50, 1390
1486725612.654423, -81, 133, -11, -115, -58, -19, -10, -11, 50, 1390
1486725612.6552553, -65, 134, -11, -97, -62, -8, -17, -8, 50, 1390
1486725612.6692855, -56, 129, -10, -113, -66, -17, -10, -7, 50, 1390
1486725612.670219, -58, 135, -11, -130, -82, -16, -11, 2, 50, 1390
1486725612.6703422, -72, 135, -10, -130, -63, -8, -14, -11, 50, 1390
1486725612.6832247, -74, 128, -11, -104, -49, -10, -10, -4, 50, 1390
1486725612.6841643, -58, 126, -11, -89, -50, -28, -23, -6, 50, 1390
1486725612.6847794, -44, 124, -11, -94, -60, -7, -13, -3, 50, 1390
1486725612.6907346, -65, 129, -11, -118, -70, -10, -14, -9, 50, 1390
1486725612.6916218, -70, 135, -11, -125, -75, -16, -5, -3, 50, 1390
1486725612.6932347, -63, 133, -11, -109, -58, -21, -15, -15, 50, 1390
1486725612.7058616, -40, 124, -11, -103, -49, -15, -15, -9, 50, 1390
1486725612.7131572, -55, 120, -11, -121, -67, -11, -17, -4, 50, 1390
1486725612.7140872, -42, 133, -10, -146, -72, -16, -11, 2, 50, 1390
1486725612.7145634, -35, 133, -10, -128, -60, -11, -10, -7, 50, 1390
1486725612.715764, -12, 129, -10, -108, -54, -18, -13, -7, 50, 1390
1486725612.7207756, 25, 132, -11, -101, -46, -13, -23, -6, 50, 1390
1486725612.7281055, 39, 140, -12, -126, -58, -9, -15, -10, 50, 1390
1486725612.7285688, 44, 137, -9, -150, -60, -12, -21, -11, 50, 1390
1486725612.7297864, 41, 127, -11, -142, -55, -14, -18, -18, 50, 1390
1486725612.743159, 54, 117, -10, -126, -56, -19, -18, -14, 50, 1390
1486725612.7441013, 76, 105, -11, -124, -65, -21, -19, -12, 50, 1390
1486725612.7453537, 95, 102, -10, -153, -75, -11, -12, -11, 50, 1390
1486725612.7580996, 95, 113, -11, -179, -90, -13, -12, -13, 50, 1390
1486725612.7587903, 103, 110, -11, -172, -68, -9, -9, -13, 50, 1390
1486725612.7597017, 127, 100, -11, -142, -66, -18, -11, -10, 50, 1390
1486725612.7620525, 148, 132, -11, -101, -46, -13, -18, -14, 50, 1390
1486725612.7656844, 160, 88, -11, -159, -84, -16, -14, -10, 50, 1390
1486725612.7666137, 147, 91, -10, -177, -91, -10, -17, -17, 50, 1390
1486725612.7678137, 143, 90, -12, -142, -55, -14, -18, -18, 50, 1390
1486725612.7807488, 153, 86, -10, -154, -68, -20, -13, -14, 50, 1390
1486725612.7816522, 162, 79, -10, -148, -71, -15, -11, -16, 50, 1390
1486725612.7821312, 151, 81, -10, -172, -104, -11, -12, -11, 50, 1390
1486725612.795679, 157, 95, -10, -185, -91, -13, -12, -13, 50, 1390
1486725612.7963023, 150, 88, -11, -167, -85, -17, -19, -14, 50, 1390
1486725612.7982192, 165, 91, -11, -153, -77, -18, -11, -10, 50, 1390
1486725612.8033395, 175, 96, -10, -158, -88, -15, -11, -15, 50, 1390
1486725612.8040771, 169, 90, -11, -175, -101, -17, -14, -14, 50, 1390
1486725612.8091984, 157, 91, -11, -180, -97, -12, -17, -17, 50, 1390
1486725612.8182278, 147, 97, -10, -164, -89, -16, -10, -19, 50, 1390
1486725612.8190963, 169, 88, -10, -141, -79, -20, -13, -11, 50, 1390
1486725612.8195434, 170, 84, -10, -147, -87, -14, -13, -10, 50, 1390
1486725612.8331692, 171, 87, -11, -162, -106, -16, -14, -14, 50, 1390
1486725612.8341095, 161, 82, -10, -168, -101, -14, -8, -8, 50, 1390
1486725612.83511, 162, 82, -10, -153, -92, -17, -19, -14, 50, 1390
1486725612.8416367, 169, 81, -11, -137, -82, -13, -14, -17, 50, 1390
1486725612.846126, 184, 80, -11, -143, -94, -16, -13, -9, 50, 1390
1486725612.8461967, 170, 84, -11, -163, -107, -15, -14, -14, 50, 1390
1486725612.85658, 163, 90, -10, -167, -103, -11, -8, -7, 50, 1390
1486725612.8566518, 167, 87, -10, -147, -85, -14, -10, -4, 50, 1390
1486725612.858205, 186, 82, -10, -128, -88, -16, -11, -11, 50, 1390
1486725612.8716323, 185, 82, -11, -145, -98, -17, -8, -9, 50, 1390
1486725612.8717048, 183, 85, -10, -163, -110, -10, -14, -10, 50, 1390
1486725612.8719556, 182, 82, -10, -165, -96, -4, -11, -8, 50, 1390
1486725612.8783813, 177, 80, -11, -140, -91, -8, -10, -14, 50, 1390
1486725612.8789275, 197, 80, -11, -131, -95, -8, -8, -13, 50, 1390
1486725612.8813741, 192, 79, -11, -138, -102, -7, -18, -4, 50, 1390
1486725612.8941898, 185, 79, -10, -156, -109, -7, -13, -11, 50, 1390
1486725612.8986123, 184, 84, -9, -153, -97, -11, -11, -5, 50, 1390
1486725612.8986826, 189, 80, -9, -129, -90, -14, -10, -4, 50, 1390
1486725612.9081838, 194, 81, -9, -120, -81, -18, -13, -8, 50, 1390
1486725612.9085057, 192, 75, -10, -137, -88, -10, -17, -9, 50, 1390
1486725612.912568, 182, 79, -12, -153, -90, -10, -14, -10, 50, 1390
1486725612.9157867, 165, 82, -11, -146, -94, -16, -19, -13, 50, 1390
1486725612.9166553, 180, 79, -10, -123, -74, -9, -11, -9, 50, 1390
1486725612.919969, 179, 69, -11, -114, -77, -12, -8, -13, 50, 1390
1486725612.9306734, 196, 84, -11, -141, -88, -6, -7, -8, 50, 1390
1486725612.931829, 187, 86, -10, -156, -104, -11, -20, -13, 50, 1390
1486725612.9328873, 166, 86, -12, -150, -91, -15, -9, -13, 50, 1390
1486725612.9456549, 171, 84, -11, -124, -79, -17, -9, -11, 50, 1390
1486725612.945914, 184, 81, -10, -118, -81, -11, -16, -13, 50, 1390
1486725612.9481099, 182, 78, -11, -131, -96, -9, -10, -6, 50, 1390
1486725612.9532871, 174, 81, -10, -147, -94, -11, -10, -19, 50, 1390
1486725612.9540434, 173, 82, -10, -141, -82, -9, -6, -17, 50, 1390
1486725612.9546223, 178, 80, -10, -122, -79, -16, -11, -9, 50, 1390
1486725612.968141, 191, 79, -11, -123, -77, -10, -10, -13, 50, 1390
1486725612.969092, 186, 77, -12, -141, -94, -6, -10, -11, 50, 1390
1486725612.970867, 180, 79, -11, -153, -87, -9, -7, -12, 50, 1390
1486725612.983171, 173, 78, -10, -138, -90, -11, -3, -11, 50, 1390
1486725612.983596, 185, 77, -12, -117, -73, -11, -9, -19, 50, 1390
1486725612.9872406, 188, 78, -11, -126, -90, -9, -14, -9, 50, 1390
1486725612.9907026, 191, 80, -11, -142, -96, -12, -18, -15, 50, 1390
1486725612.9914954, 187, 80, -10, -149, -95, -9, -7, -13, 50, 1390
1486725612.9921198, 178, 83, -11, -133, -86, -9, -7, -11, 50, 1390
1486725612.9923904, 201, 82, -10, -114, -79, -16, -11, -17, 50, 1390
1486725613.005645, 199, 77, -10, -121, -83, -12, -8, -7, 50, 1390
1486725613.0066307, 196, 78, -10, -144, -92, -9, -16, -15, 50, 1390
1486725613.006909, 177, 82, -10, -156, -103, -9, -7, -12, 50, 1390
1486725613.0205991, 183, 77, -10, -136, -92, -17, -9, -12, 50, 1390
1486725613.0210285, 186, 80, -11, -120, -85, -10, -10, -4, 50, 1390
1486725613.0231092, 195, 76, -11, -123, -94, -18, -14, -9, 50, 1390
1486725613.028103, 192, 76, -11, -144, -100, -15, -13, -16, 50, 1390
1486725613.0291753, 183, 82, -11, -141, -91, -11, -8, -16, 50, 1390
1486725613.029785, 188, 85, -10, -125, -85, -17, -9, -11, 50, 1390
1486725613.0440493, 186, 73, -12, -110, -85, -17, -11, -19, 50, 1390
1486725613.0454228, 197, 76, -10, -126, -85, -9, -11, -14, 50, 1390
1486725613.0455081, 193, 82, -10, -147, -92, -9, -16, -15, 50, 1390
1486725613.0582042, 183, 84, -10, -145, -102, -11, -12, -11, 50, 1390
1486725613.0585957, 187, 79, -11, -121, -83, -17, -19, -11, 50, 1390
1486725613.0601656, 204, 81, -10, -110, -84, -10, -10, -4, 50, 1390
1486725613.0657792, 199, 73, -10, -116, -97, -14, -18, -7, 50, 1390
1486725613.066029, 184, 82, -11, -145, -104, -12, -13, -10, 50, 1390
1486725613.0678213, 180, 82, -11, -135, -95, -11, -11, -16, 50, 1390
1486725613.080662, 184, 78, -11, -113, -76, -10, -9, -10, 50, 1390
1486725613.081652, 181, 71, -10, -105, -79, -8, -10, -12, 50, 1390
1486725613.0819387, 194, 76, -11, -121, -82, -12, -10, -11, 50, 1390
1486725613.0956733, 183, 79, -10, -137, -91, -14, -17, -15, 50, 1390
1486725613.096637, 175, 78, -10, -126, -83, -13, -13, -9, 50, 1390
1486725613.0977597, 191, 79, -11, -105, -69, -17, -19, -11, 50, 1390
1486725613.103168, 193, 67, -11, -98, -78, -12, -5, -2, 50, 1390
1486725613.104151, 181, 70, -11, -113, -86, -10, -10, -14, 50, 1390
1486725613.1068232, 170, 67, -10, -129, -97, -9, -13, -10, 50, 1390
1486725613.1181757, 166, 67, -10, -125, -86, -15, -8, -11, 50, 1390
1486725613.1187844, 188, 76, -10, -107, -78, -16, -17, -14, 50, 1390
1486725613.1192706, 181, 70, -12, -105, -83, -19, -10, -21, 50, 1390
1486725613.1331697, 185, 76, -11, -124, -94, -12, -13, -16, 50, 1390
1486725613.1340427, 177, 80, -11, -134, -94, -14, -6, -13, 50, 1390
1486725613.1343472, 174, 74, -10, -124, -81, -15, -8, -13, 50, 1390
1486725613.1407325, 179, 69, -10, -104, -77, -12, -11, -5, 50, 1390
1486725613.1416194, 185, 71, -10, -106, -73, -6, -14, -21, 50, 1390
1486725613.144007, 179, 70, -10, -123, -95, -10, -10, -14, 50, 1390
1486725613.1557488, 174, 76, -10, -140, -97, -7, -7, -11, 50, 1390
1486725613.1565328, 174, 73, -11, -116, -90, -15, -17, -10, 50, 1390
1486725613.1588938, 184, 71, -11, -92, -76, -17, -14, -14, 50, 1390
1486725613.1716478, 194, 71, -10, -97, -77, -16, -12, -20, 50, 1390
1486725613.1727185, 189, 72, -11, -121, -92, -15, -14, -11, 50, 1390
1486725613.1727886, 175, 67, -11, -131, -92, -11, -15, -14, 50, 1390
1486725613.178207, 178, 75, -11, -117, -81, -9, -6, -15, 50, 1390
1486725613.179068, 184, 68, -11, -95, -73, -7, -9, -19, 50, 1390
1486725613.1803913, 195, 68, -11, -105, -81, -7, -14, -15, 50, 1390
1486725613.1936169, 177, 63, -10, -122, -95, -13, -17, -18, 50, 1390
1486725613.196866, 161, 67, -10, -125, -97, -17, -14, -13, 50, 1390
1486725613.1982975, 175, 68, -10, -110, -85, -15, -17, -10, 50, 1390
1486725613.2082078, 180, 64, -10, -96, -76, -14, -17, -10, 50, 1390
1486725613.2090452, 181, 62, -11, -103, -78, -10, -15, -15, 50, 1390
1486725613.2107625, 167, 70, -11, -134, -92, -8, -11, -5, 50, 1390
1486725613.216451, 153, 64, -10, -133, -93, -10, -12, -13, 50, 1390
1486725613.2172797, 152, 60, -10, -116, -77, -16, -13, -16, 50, 1390
1486725613.2173512, 170, 66, -11, -102, -82, -16, -11, -12, 50, 1390
1486725613.217888, 174, 68, -11, -105, -81, -7, -14, -15, 50, 1390
1486725613.2306898, 155, 64, -11, -131, -90, -15, -20, -19, 50, 1390
1486725613.2316613, 161, 66, -10, -128, -85, -16, -19, -18, 50, 1390
1486725613.2334027, 167, 68, -10, -110, -85, -18, -12, -14, 50, 1390
1486725613.2457263, 163, 60, -10, -87, -66, -15, -14, -16, 2510, 50
1486725613.2466283, 163, 64, -11, -103, -79, -14, -19, -10, 2510, 50
1486725613.2509434, 157, 66, -11, -134, -92, -8, -11, -5, 2510, 50
1486725613.2532253, 141, 67, -10, -122, -78, -19, -12, -15, 2510, 50
1486725613.2541804, 154, 70, -10, -105, -79, -18, -14, -18, 2510, 50
1486725613.256091, 163, 60, -11, -91, -82, -16, -11, -12, 2510, 50
1486725613.2682645, 155, 62, -11, -107, -76, -6, -9, -14, 2510, 50
1486725613.268574, 154, 69, -11, -124, -81, -14, -8, -11, 2510, 50
1486725613.2696831, 144, 68, -10, -114, -85, -16, -19, -18, 2510, 50
1486725613.283286, 153, 63, -10, -97, -60, -7, -10, -9, 2510, 50
1486725613.2839327, 163, 67, -10, -94, -69, -8, -10, -11, 2510, 50
1486725613.28565, 160, 61, -11, -110, -73, -10, -8, -10, 2510, 50
1486725613.2907183, 142, 69, -10, -131, -78, -11, -5, -6, 2510, 50
1486725613.2916398, 147, 66, -12, -116, -76, -17, -5, -13, 2510, 50
1486725613.2927468, 151, 58, -10, -94, -69, -14, -7, -4, 2510, 50
1486725613.3058078, 158, 60, -10, -90, -74, -10, -6, -12, 2510, 50
1486725613.3066502, 162, 64, -12, -113, -79, -12, -16, -10, 2510, 50
1486725613.3083992, 151, 65, -10, -129, -83, -8, -15, -15, 2510, 50
1486725613.320696, 145, 63, -12, -124, -80, -17, -16, -10, 2510, 50
1486725613.3216033, 158, 63, -11, -104, -77, -14, -7, -5, 2510, 50
1486725613.322707, 171, 61, -10, -102, -75, -8, -10, -11, 2510, 50
1486725613.3283496, 163, 68, -10, -120, -86, -12, -12, -13, 2510, 50
1486725613.3291512, 147, 62, -11, -119, -76, -12, -13, -10, 2510, 50
1486725613.331156, 144, 64, -10, -104, -77, -17, -5, -13, 2510, 50
1486725613.3441763, 153, 62, -11, -91, -66, -16, -14, -14, 2510, 50
1486725613.3449914, 156, 59, -12, -96, -69, -15, -11, 4, 2510, 50
1486725613.3450644, 146, 56, -11, -125, -88, -7, -7, -7, 2510, 50
1486725613.3583457, 139, 56, -11, -131, -78, -7, -5, -6, 2510, 50
1486725613.3592384, 138, 58, -11, -112, -70, -6, -4, -13, 2510, 50
1486725613.3594928, 150, 55, -10, -89, -58, -14, -11, -7, 2510, 50
1486725613.365715, 145, 48, -11, -91, -65, -8, -9, -8, 2510, 50
1486725613.3664055, 141, 50, -11, -109, -72, -9, -9, -7, 2510, 50
1486725613.3675072, 127, 53, -12, -119, -68, -10, -13, -2, 2510, 50
1486725613.380703, 121, 60, -10, -103, -60, -5, -11, -8, 2510, 50
1486725613.3884826, 131, 54, -11, -86, -53, -9, -12, -6, 2510, 50
1486725613.388921, 141, 53, -10, -99, -66, -10, -11, 4, 2510, 50
1486725613.3892698, 141, 59, -10, -124, -79, -14, -18, -9, 2510, 50
1486725613.3900297, 133, 58, -11, -122, -77, -12, -12, -14, 2510, 50
1486725613.395776, 136, 61, -11, -103, -64, -21, -11, -13, 2510, 50
1486725613.4032612, 145, 58, -10, -87, -52, -15, -12, -9, 2510, 50
1486725613.4036186, 149, 57, -10, -95, -56, -14, -16, -9, 2510, 50
1486725613.4043624, 128, 55, -9, -113, -69, -8, -9, -11, 2510, 50
1486725613.4182305, 120, 56, -11, -110, -70, -10, -5, -14, 2510, 50
1486725613.4186163, 125, 47, -11, -90, -70, -10, -11, -15, 2510, 50
1486725613.425663, 147, 51, -10, -78, -57, -9, -12, -6, 2510, 50
1486725613.4332163, 149, 50, -10, -90, -61, -11, -7, -9, 2510, 50
1486725613.433607, 132, 54, -11, -112, -74, -15, -16, -20, 2510, 50
1486725613.4343996, 119, 57, -10, -109, -61, -16, -22, -14, 2510, 50
1486725613.440609, 135, 54, -12, -84, -42, -12, -13, -13, 2510, 50
1486725613.4410248, 149, 51, -11, -78, -53, -16, -22, -14, 2510, 50
1486725613.4419174, 136, 51, -11, -102, -70, -20, -20, -18, 2510, 50
1486725613.4556174, 129, 52, -10, -118, -74, -14, -18, -10, 2510, 50
1486725613.4560387, 122, 55, -10, -116, -75, -12, -14, -10, 2510, 50
1486725613.4569225, 147, 59, -12, -93, -61, -18, -7, -9, 2510, 50
1486725613.470754, 150, 52, -11, -82, -74, -14, -15, -13, 2510, 50
1486725613.4712389, 142, 53, -10, -96, -72, -8, -10, -7, 2510, 50
1486725613.4717, 135, 56, -10, -104, -80, -12, -14, -12, 2510, 50
1486725613.472594, 136, 57, -10, -109, -61, -16, -22, -7, 2510, 50
1486725613.4782004, 130, 50, -11, -74, -55, -16, -10, -13, 2510, 50
1486725613.485877, 146, 55, -11, -71, -62, -15, -14, -11, 2510, 50
1486725613.486324, 136, 51, -11, -102, -70, -20, -20, -18, 2510, 50
1486725613.493196, 125, 51, -11, -99, -77, -17, -15, -12, 2510, 50
1486725613.4935858, 130, 55, -10, -90, -68, -16, -18, -12, 2510, 50
1486725613.4945223, 127, 48, -11, -93, -61, -18, -7, -9, 2510, 50
1486725613.5082743, 135, 41, -12, -59, -48, -16, -16, -16, 2510, 50
1486725613.5087001, 122, 34, -10, -80, -60, -9, -21, -11, 2510, 50
1486725613.5093946, 116, 33, -11, -89, -56, -12, -14, -12, 2510, 50
1486725613.5156453, 104, 36, -9, -83, -54, -17, -9, -11, 2510, 50
1486725613.5160446, 108, 34, -12, -66, -42, -24, -17, -15, 2510, 50
1486725613.5168903, 116, 31, -11, -73, -57, -9, -13, -11, 2510, 50
1486725613.5307236, 101, 6, -11, -64, -48, -11, -15, -6, 2510, 50
1486725613.531112, 77, 6, -10, -58, -30, -19, -16, -10, 2510, 50
1486725613.5318797, 56, -1, -11, -25, -10, -18, -17, -15, 2510, 50
1486725613.545652, 40, -20, -12, 2, 7, -15, -9, -12, 2510, 50
1486725613.5460641, 6, -44, -10, 18, 16, -15, -15, -11, 2510, 50
1486725613.546719, -23, -54, -11, 11, 25, -10, -10, -17, 2510, 50
1486725613.5531893, -70, -74, -12, 24, 31, -16, -18, -22, 2510, 50
1486725613.5535898, -105, -92, -10, 55, 66, -19, -10, -20, 2510, 50
1486725613.5545084, -115, -111, -11, 88, -183, -24, -17, -15, 2510, 50
1486725613.568134, -160, -129, -11, 89, 83, -12, -15, -11, 2510, 50
1486725613.568509, -186, -145, -11, 87, 89, -15, -13, -8, 2510, 50
1486725613.5696123, -218, -158, -11, 109, 105, -11, -11, -10, 2510, 50
1486725613.5830588, -239, -189, -10, 144, 125, -13, -8, -16, 2510, 50
1486725613.583456, -245, -205, -11, 176, 145, -17, -12, -17, 2510, 50
1486725613.5846586, -255, -223, -12, 184, 131, -13, -20, -15, 2510, 50
1486725613.5908163, -277, -241, -11, 182, 143, -4, -13, -10, 2510, 50
1486725613.5946543, -294, -251, -11, 206, 147, -7, -17, -21, 2510, 50
1486725613.5947237, -294, -276, -10, 244, 177, -11, -13, -10, 2510, 50
1486725613.6058867, -304, -293, -11, 266, 176, -11, -9, -15, 2510, 50
1486725613.6066594, -316, -316, -10, 265, 179, -6, -13, -6, 2510, 50
1486725613.6106093, -337, -329, -12, 253, 168, -15, -13, -8, 2510, 50
1486725613.6207952, -344, -341, -10, 266, 186, -12, -13, -19, 2510, 50
1486725613.621434, -340, -359, -11, 295, 199, -10, -9, -15, 2510, 50
1486725613.6220481, -325, -367, -11, 315, 200, -5, -12, -17, 2510, 50
1486725613.6282883, -342, -381, -11, 304, 188, -11, -17, -14, 2510, 50
1486725613.6292458, -360, -390, -12, 297, 179, -13, -18, -12, 2510, 50
1486725613.6328983, -368, -398, -12, 317, 196, -10, -18, -21, 2510, 50
1486725613.64349, -346, -414, -10, 344, 202, -18, -14, -15, 2510, 50
1486725613.6508644, -348, -417, -11, 345, 190, -13, -16, -8, 2510, 50
1486725613.653953, -355, -433, -10, 330, 178, -16, -13, -15, 2510, 50
1486725613.6584055, -368, -430, -11, 322, 185, -16, -19, -17, 2510, 50
1486725613.6587744, -376, -435, -11, 339, 188, -22, -12, -6, 2510, 50
1486725613.6590903, -369, -440, -11, 364, 199, -23, -11, -10, 2510, 50
1486725613.6657612, -360, -447, -10, 366, 194, -9, -12, -12, 2510, 50
1486725613.6661513, -366, -447, -12, 344, 189, -14, -19, -17, 2510, 50
1486725613.6667564, -379, -442, -10, 325, 183, -11, -18, -12, 2510, 50
1486725613.6806731, -363, -440, -12, -20737, 14982, -24336, 17150, -2562, 2510, 50
1486725613.6811755, -327, -447, -11, 335, 186, -10, -21, -17, 2510, 50
1486725613.6956975, -340, -447, -11, 315, 166, -7, -16, -13, 2510, 50
1486725613.6960902, -355, -446, -10, 292, 162, -13, -18, -9, 2510, 50
1486725613.6967247, -346, -441, -11, 304, 156, -13, -12, -6, 2510, 50
1486725613.7033432, -331, -442, -11, 316, 166, -19, -19, -17, 2510, 50
1486725613.703784, -324, -437, -11, 307, 155, -15, -23, -18, 2510, 50
1486725613.7041993, -327, -445, -11, 291, 146, -13, -21, -12, 2510, 50
1486725613.7049084, -328, -448, -12, 344, 189, -14, -19, -17, 2510, 50
1486725613.7182195, -325, -449, -10, 298, 158, -16, -16, -12, 2510, 50
1486725613.7185512, -302, -444, -12, 306, 165, -12, -13, -16, 2510, 50
1486725613.719532, -298, -442, -11, 299, 148, -10, -21, -17, 2510, 50
1486725613.7407818, -312, -443, -11, 278, 144, -12, -15, -12, 2510, 50
1486725613.7411933, -318, -440, -12, 266, 139, -8, -21, -8, 2510, 50
1486725613.7416215, -333, -441, -11, 304, 156, -13, -12, -6, 2510, 50
1486725613.7425215, -303, -440, -11, 300, 160, -17, -17, -7, 2510, 50
1486725613.7483394, -309, -439, -11, 293, 153, -11, -18, -11, 2510, 50
1486725613.7486682, -330, -434, -11, 262, 139, -13, -21, -12, 2510, 50
1486725613.7557473, -352, -452, -11, 266, 142, -11, -8, -12, 2510, 50
1486725613.756085, -342, -446, -12, 282, 154, -20, -13, -9, 2510, 50
1486725613.756699, -337, -450, -11, 295, 151, -20, -13, -16, 2510, 50
1486725613.7707176, -322, -447, -12, 277, 144, -12, -16, -10, 2510, 50
1486725613.7711055, -338, -449, -11, 252, 132, -10, -19, -11, 2510, 50
1486725613.7717338, -330, -443, -11, 254, 133, -12, -21, -8, 2510, 50
1486725613.778285, -313, -443, -10, 278, 136, -10, -12, -17, 2510, 50
1486725613.7786765, -307, -445, -10, 287, 134, -7, -13, -24, 2510, 50
1486725613.779395, -305, -450, -11, 280, 124, -12, -16, -11, 2510, 50
1486725613.793259, -314, -443, -11, 259, 121, -6, -13, -12, 2510, 50
1486725613.7936504, -324, -441, -10, 264, 124, -7, -19, -11, 2510, 50
1486725613.7942162, -308, -443, -12, 284, 133, -19, -20, -18, 2510, 50
1486725613.8082244, -305, -450, -11, 291, 138, -13, -9, -9, 2510, 50
1486725613.808592, -304, -445, -11, 270, 130, -13, -13, -10, 2510, 50
1486725613.809347, -309, -442, -11, 246, 119, -13, -15, -10, 2510, 50
1486725613.8158112, -318, -439, -10, 251, 138, -9, -14, -10, 2510, 50
1486725613.8160453, -306, -435, -11, 271, 130, -11, -8, -5, 2510, 50
1486725613.8167415, -293, -438, -12, 277, 129, -7, -13, -24, 2510, 50
1486725613.830774, -295, -445, -12, 257, 120, -11, -16, -10, 2510, 50
1486725613.8311641, -316, -437, -12, 238, 113, -13, -17, -11, 2510, 50
1486725613.8317578, -311, -435, -11, 248, 125, -12, -8, -14, 2510, 50
1486725613.8457298, -308, -435, -10, 272, 138, -18, -11, -16, 2510, 50
1486725613.8460908, -305, -434, -10, 271, 133, -7, -14, -14, 2510, 50
1486725613.8467762, -295, -439, -10, 249, 115, -11, -13, -9, 2510, 50
1486725613.8531792, -309, -431, -11, 232, 118, -4, -7, -11, 2510, 50
1486725613.8606417, -303, -430, -11, 246, 116, -17, -14, -15, 2510, 50
1486725613.8611453, -297, -425, -11, 264, 127, -13, -19, -9, 2510, 50
1486725613.8682654, -293, -433, -11, 263, 121, -16, -11, -12, 2510, 50
1486725613.8686774, -300, -427, -11, 244, 114, -10, -14, -17, 2510, 50
1486725613.8692777, -313, -430, -11, 233, 111, -12, -9, -10, 2510, 50
1486725613.8852248, -312, -428, -11, 245, 121, -12, -10, -10, 2500, 56
1486725613.8856783, -304, -428, -10, 262, 127, -9, -9, -16, 2500, 56
1486725613.8857155, -295, -420, -10, 246, 119, -14, -11, -12, 2500, 56
1486725613.890666, -303, -425, -11, 225, 113, -13, -11, -20, 2500, 56
1486725613.8910162, -309, -417, -11, 221, 112, -16, -17, -11, 2500, 56
1486725613.891979, -313, -416, -10, 241, 115, -17, -11, -17, 2500, 56
1486725613.905672, -290, -417, -11, 261, 132, -13, -11, -13, 2500, 56
1486725613.9074564, -287, -420, -11, 252, 123, -14, -14, -11, 2500, 56
1486725613.907914, -302, -415, -11, 225, 117, -4, -6, -17, 2500, 56
1486725613.9206676, -300, -405, -10, 221, 115, -10, -8, -13, 2500, 56
1486725613.921026, -301, -407, -10, 239, 118, -22, -10, -10, 2500, 56
1486725613.922152, -281, -409, -12, 253, 125, -9, -15, -10, 2500, 56
1486725613.928213, -282, -408, -10, 245, 118, -8, -14, -16, 2500, 56
1486725613.9286048, -293, -405, -11, 222, 111, -8, -8, -12, 2500, 56
1486725613.9294643, -301, -400, -10, 219, 112, -11, -8, -12, 2500, 56
1486725613.9432037, -287, -400, -11, 238, 123, -14, -8, -11, 2500, 56
1486725613.9436085, -278, -399, -11, 252, 124, -5, -8, -23, 2500, 56
1486725613.9443927, -274, -403, -10, 239, 118, -12, -15, -17, 2500, 56
1486725613.9452076, -302, -415, -11, 225, 117, -4, -6, -15, 2500, 56
1486725613.9579225, -293, -397, -11, 227, 111, -10, -9, -18, 2500, 56
1486725613.9587529, -280, -395, -11, 245, 121, -10, -7, -16, 2500, 56
1486725613.959303, -272, -398, -12, 253, 125, -9, -15, -10, 2500, 56
1486725613.965699, -273, -392, -10, 226, 109, -9, -14, -20, 2500, 56
1486725613.966097, -286, -386, -11, 211, 92, -8, -9, -17, 2500, 56
1486725613.96704, -287, -388, -10, 213, 112, -11, -8, -12, 2500, 56
1486725613.9807363, -275, -384, -11, 231, 107, -14, -10, -16, 2500, 56
1486725613.9811134, -268, -388, -11, 232, 111, -20, -17, -17, 2500, 56
