t, ch0, ch1, ch2, ch3, ch4, ch5, ch6, ch7, x, y
1486824571.5098681, -1468, -2048, -9, -102, -481, -16, -11, -4, 0, 0
1486824571.5099368, -1467, -2048, -8, -103, -484, -16, -16, -9, 0, 0
1486824571.5099647, -1467, -2048, -8, -87, -474, -16, -15, -5, 0, 0
1486824571.5099874, -1468, -2048, -7, -77, -462, -14, -20, -19, 0, 0
1486824571.510008, -1470, -2048, -8, -75, -471, -21, -9, -3, 0, 0
1486824571.5100288, -1470, -2048, -8, -92, -489, -15, -16, -11, 0, 0
1486824571.5100489, -1468, -2048, -8, -102, -491, -25, -15, -6, 0, 0
1486824571.510072, -1470, -2048, -8, -81, -475, -14, -19, -9, 0, 0
1486824571.5100923, -1470, -2048, -8, -68, -463, 4, 1, -5, 0, 0
1486824571.510112, -1470, -2048, -9, -80, -472, -12, -4038, -1477, 0, 0
1486824571.5101337, -1475, -2048, -8, -79, -477, -13, -8, -5, 0, 0
1486824571.5101538, -1474, -2048, -8, -88, -484, -16, -16, -9, 0, 0
1486824571.5101736, -1475, -2048, -9, -104, -504, -10, -9, 1, 0, 0
1486824571.5102262, -1481, -2048, -8, -158, -505, -17, -13, -3, 0, 0
1486824571.5102482, -1495, -2048, -8, 130, -328, -14, -15, -7, 0, 0
1486824571.5102682, -1500, -2048, -8, 66, -400, -18, -12, -8, 0, 0
1486824571.5102901, -1507, -2048, -8, 51, -404, -11, -7, -9, 0, 0
1486824571.5103118, -1507, -2048, -9, 46, -424, -22, -15, -12, 0, 0
1486824571.5103328, -1508, -2048, -8, 24, -436, -13, -8, -7, 0, 0
1486824571.5103552, -1508, -2048, -8, 18, -438, -13, -8, -2, 0, 0
1486824571.5103753, -1516, -2048, -8, 31, -412, -12, -11, -12, 0, 0
1486824571.510394, -1516, -2048, -8, 23, -413, -20, -13, 1, 0, 0
1486824571.5108917, -1514, -2048, -8, 33, -412, -17, -15, -8, 0, 0
1486824571.5109646, -1515, -2048, -9, 46, -399, -13, -12, -5, 0, 0
1486824571.5109909, -1519, -2048, -8, 34, -421, -18, -11, 0, 0, 0
1486824571.511013, -1519, -2048, -8, 35, -428, -18, -22, -6, 0, 0
1486824571.511035, -1521, -2048, -8, 22, -443, -17, -16, -9, 0, 0
1486824571.5110555, -1519, -2048, -9, 17, -440, -11, -7, 2, 0, 0
1486824571.5110753, -1527, -2048, -8, -4, -432, -18, -8, -8, 0, 0
1486824571.511095, -1527, -2048, -8, -9, -442, -16, -12, -9, 0, 0
1486824571.5111146, -1527, -2048, -8, -25, -450, -17, -13, -8, 0, 0
1486824571.511134, -1525, -2048, -8, -22, -446, -21, -13, -2, 0, 0
1486824571.5111535, -1529, -2048, -8, -50, -471, -8, -11, -6, 0, 0
1486824571.511173, -1532, -2048, -8, -37, -463, -15, -14, -6, 0, 0
1486824571.5111926, -1533, -2048, -8, -32, -463, -22, -18, -7, 0, 0
1486824571.5112119, -1531, -2048, -7, -42, -470, -18, -15, -4, 0, 0
1486824571.5112321, -1534, -2048, -9, -49, -473, -7, -5, -8, 0, 0
1486824571.5112517, -1532, -2048, -8, -42, -467, -12, -11, -8, 0, 0
1486824571.5112712, -1532, -2048, -9, -24, -453, -19, -17, -10, 0, 0
1486824571.5112906, -1533, -2048, -9, -33, -465, -17, -17, -8, 0, 0
1486824571.5113103, -1532, -2048, -9, -41, -474, -21, -14, -7, 0, 0
1486824571.5113404, -1535, -2048, -9, -45, -478, -17, -18, -5, 0, 0
1486824571.5113623, -1539, -2048, -7, -34, -459, -16, -7, 5, 0, 0
1486824571.5113826, -1536, -2048, -8, -27, -458, -12, -15, -9, 0, 0
1486824571.5114017, -1540, -2048, -9, -17, -459, -13, -11, -13, 0, 0
1486824571.5117083, -1535, -2048, -8, -27, -3037, -4353, -2561, -23041, 0, 0
1486824571.5117466, -1539, -2048, -8, -15, -462, -16, -14, -3, 0, 0
1486824571.5117722, -1538, -2048, -8, -4, -460, -11, -20, -8, 0, 0
1486824571.5118032, -1542, -2048, -8, -25, -467, -16, -15, -9, 0, 0
1486824571.5118287, -1539, -2048, -8, -28, -472, -18, -24, -10, 0, 0
1486824571.5118504, -1286, -2048, -9, -41, -474, -21, -14, -7, 0, 0
1486824571.5118716, -1536, -2048, -8, -28, -456, -8, -8, -4, 0, 0
1486824571.511892, -1544, -2048, -8, -25, -450, -15, -13, -7, 0, 0
1486824571.5119119, -1539, -2048, -8, -27, -458, -12, -15, -9, 0, 0
1486824571.5119314, -1542, -2048, -8, -46, -463, -10, -9, -3, 0, 0
1486824571.5119512, -1541, -2048, -8, -39, -460, -13, -14, -3, 0, 0
1486824571.5119708, -1542, -2048, -8, -29, -462, -16, -14, -3, 0, 0
1486824571.5119905, -1542, -2048, -9, -18, -447, -11, -10, -4, 0, 0
1486824571.51201, -1539, -2048, -9, -30, -465, -11, -17, -10, 0, 0
1486824571.51203, -1544, -2048, -9, -43, -472, -18, -24, -10, 0, 0
1486824571.5120494, -1541, -2048, -9, -49, -487, -10, -13, -8, 0, 0
1486824571.5120685, -1541, -2048, -8, -31, -466, -13, -13, -10, 0, 0
1486824571.5120878, -1541, -2048, -8, -28, -462, -15, -13, -7, 0, 0
1486824571.51211, -1545, -2048, -8, -37, -470, -17, -23, -13, 0, 0
1486824571.512132, -1543, -2048, -9, -46, -475, -14, -16, -7, 0, 0
1486824571.5121524, -1545, -2048, -9, -41, -473, -17, -14, -6, 0, 0
1486824571.5121744, -1543, -2048, -8, -40, -463, -13, -11, -6, 0, 0
1486824571.5121965, -1542, -2048, -8, -29, -465, -15, -12, -9, 0, 0
1486824571.5122194, -1546, -2048, -8, -32, -461, -13, -12, -6, 0, 0
1486824571.5129902, -1543, -2048, -8, -44, -486, -10, -16, -9, 0, 0
1486824571.513063, -1548, -2048, -8, -28, -470, -16, -15, -5, 0, 0
1486824571.5130894, -1542, -2048, -8, -12, -466, -10, -6, -2, 0, 0
1486824571.5131228, -1542, -2048, -8, -12, -458, -16, -4, -5, 0, 0
1486824571.513261, -1542, -2048, -7, -16, -479, -12, -10, -4, 0, 0
1486824571.5132866, -1547, -2048, -9, -31, -471, -12, -16, -7, 0, 0
1486824571.5133078, -1545, -2048, -8, -22, -458, -9, -20, -6, 0, 0
1486824571.5133283, -1545, -2048, -8, -5, -454, -13, -18, -5, 0, 0
1486824571.5133483, -1545, -2048, -8, -10, -450, -14, -17, -13, 0, 0
1486824571.5133684, -1545, -2048, -9, -29, -467, -9, -13, -10, 0, 0
1486824571.5133877, -1547, -2048, -8, -31, -470, -10, -14, -6, 0, 0
1486824571.5134077, -1544, -2048, -8, -27, -466, -14, -24, -10, 0, 0
1486824571.5134277, -1552, -2048, -8, -9, -455, -6, -16, -13, 0, 0
1486824571.5134475, -1549, -2048, -7, -10, -474, -17, -16, -13, 0, 0
1486824571.5134668, -1552, -2048, -8, -27, -481, -12, -10, -4, 0, 0
1486824571.5134861, -1546, -2048, -8, -44, -488, -18, -16, -6, 0, 0
1486824571.5135057, -1545, -2048, -9, -34, -479, -11, -16, -6, 0, 0
1486824571.5135252, -1546, -2048, -8, -17, -470, -15, -18, -5, 0, 0
1486824571.51355, -1549, -2048, -7, -22, -476, -16, -11, -9, 0, 0
1486824571.513572, -1547, -2048, -9, -38, -487, -14, -10, -4, 0, 0
1486824571.5135949, -1548, -2048, -7, -46, -494, -17, -13, -6, 0, 0
1486824571.5136147, -1553, -2048, -8, -39, -485, -13, -19, -9, 0, 0
1486824571.5136337, -1547, -2048, -8, -25, -472, -16, -19, -10, 0, 0
1486824571.5141625, -1553, -2048, -9, -35, -489, -12, -21, -13, 0, 0
1486824571.5142124, -1546, -2048, -8, -52, -503, -12, -17, -6, 0, 0
1486824571.5142388, -1548, -2048, -8, -50, -498, -14, -15, -5, 0, 0
1486824571.5142615, -1547, -2048, -8, -40, -488, -17, -16, -2, 0, 0
1486824571.5142825, -1551, -2048, -7, -30, -475, -23, -13, -3, 0, 0
1486824571.5143132, -1548, -2048, -9, -40, -484, -18, -11, -2, 0, 0
1486824571.5143366, -1546, -2048, -8, -41, -498, -14, -10, -4, 0, 0
1486824571.5143573, -1550, -2048, -8, -40, -490, -12, -12, -12, 0, 0
1486824571.514425, -1550, -2048, -8, -25, -481, -16, -15, -13, 0, 0
1486824571.514446, -1552, -2048, -7, -14, -471, -12, -19, -10, 0, 0
1486824571.514466, -1549, -2048, -8, -32, -484, -4, -12, -12, 0, 0
1486824571.5144858, -1549, -2048, -8, -36, -496, -10, -11, -8, 0, 0
1486824571.5145054, -1548, -2048, -8, -44, -500, -14, -8, -4, 0, 0
1486824571.514525, -1554, -2048, -8, -27, -478, -12, -5, -2, 0, 0
1486824571.514545, -1551, -2048, -8, -19, -479, -14, -8, 3, 0, 0
1486824571.5145655, -1550, -2048, -8, -24, -491, -10, -12, -8, 0, 0
1486824571.5145845, -1546, -2048, -8, -41, -498, -11, -6, -3, 0, 0
1486824571.514604, -1551, -2048, -9, -38, -494, -9, -9, -1, 0, 0
1486824571.514624, -1554, -2048, -8, -27, -479, -9, -12, -8, 0, 0
1486824571.5146465, -1554, -2048, -7, -14, -471, -12, -10, -12, 0, 0
1486824571.514671, -1552, -2048, -9, -35, -497, -4, -5, 2, 0, 0
1486824571.5146914, -1550, -2048, -8, -41, -507, -10, -10, 0, 0, 0
1486824571.514711, -1556, -2048, -8, -44, -500, -14, -8, -4, 0, 0
1486824571.5158987, -1550, -2048, -9, -23, -485, -11, -14, -2, 0, 0
1486824571.5159695, -1552, -2048, -7, -23, -486, -9, -19, -3, 0, 0
1486824571.5159957, -1551, -2048, -7, -32, -491, -10, -12, -8, 0, 0
1486824571.5160174, -1554, -2048, -8, -41, -494, -6, -11, -1, 0, 0
1486824571.5160444, -1552, -2048, -8, -33, -485, -10, -17, -9, 0, 0
1486824571.5160651, -1555, -2048, -8, -20, -479, -9, -12, -8, 0, 0
1486824571.5160882, -1554, -2048, -8, -19, -479, -14, -15, -5, 0, 0
1486824571.516109, -1554, -2048, -7, -25, -489, -14, -21, -10, 0, 0
1486824571.5161295, -1558, -2048, -8, -38, -501, -10, -10, 0, 0, 0
1486824571.5161495, -1553, -2048, -8, -32, -490, -19, -17, -5, 0, 0
1486824571.5161693, -1550, -2048, -8, -17, -484, -11, -10, -6, 0, 0
1486824571.5161884, -1552, -2048, -8, -20, -491, -14, -19, -3, 0, 0
1486824571.5162091, -1558, -2048, -8, -33, -499, -13, -15, -5, 0, 0
1486824571.5162287, -1554, -2048, -9, -40, -498, -5, -15, -12, 0, 0
1486824571.5162477, -1555, -2048, -9, -36, -490, -10, -15, -5, 0, 0
1486824571.5162678, -1553, -2048, -8, -24, -486, -12, -15, -8, 0, 0
1486824571.5162873, -1554, -2048, -8, -25, -493, -21, -18, -13, 0, 0
1486824571.5163064, -1555, -2048, -9, -39, -499, -17, -16, -7, 0, 0
1486824571.516326, -1555, -2048, -8, -33, -493, -22, -22, -4, 0, 0
1486824571.5163455, -1555, -2048, -9, -27, -484, -10, -14, -12, 0, 0
1486824571.516365, -1553, -2048, -9, -17, -476, -12, -11, -10, 0, 0
1486824571.5163848, -1560, -2048, -8, -24, -481, -16, -10, -7, 0, 0
1486824571.5164042, -1555, -2048, -9, -33, -496, -13, -15, -5, 0, 0
1486824571.5170612, -1559, -2048, -7, -33, -488, -5, -15, -12, 0, 0
1486824571.517133, -1557, -2048, -8, -23, -480, -13, -10, -6, 0, 0
1486824571.5171597, -1557, -2048, -9, -22, -481, -14, -16, -12, 0, 0
1486824571.517182, -1555, -2048, -9, -21, -482, -13, -27, -13, 0, 0
1486824571.5172026, -1556, -2048, -7, -33, -494, -15, -18, -16, 0, 0
1486824571.5172606, -1557, -2048, -8, -33, -489, -20, -20, -11, 0, 0
1486824571.5172822, -1554, -2048, -8, -26, -476, -14, -19, -10, 0, 0
1486824571.5173023, -1559, -2048, -8, -17, -473, -9, -10, -7, 0, 0
1486824571.5173218, -1557, -2048, -8, -20, -487, -12, -11, -6, 0, 0
1486824571.517341, -1564, -2048, -9, -33, -491, -15, -11, -11, 0, 0
1486824571.5173697, -1559, -2048, -8, -34, -484, -10, -9, -17, 0, 0
1486824571.517392, -1557, -2048, -8, -29, -484, -15, -13, -5, 0, 0
1486824571.5174136, -1555, -2048, -7, -17, -473, -7, -12, -7, 0, 0
1486824571.5174334, -1563, -2048, -9, -29, -484, -9, -14, -13, 0, 0
1486824571.5174522, -1560, -2048, -8, -39, -488, -11, -19, -7, 0, 0
1486824571.5174713, -1555, -2048, -9, -40, -492, -20, -20, -11, 0, 0
1486824571.5174909, -1561, -2048, -7, -28, -476, -9, -12, -15, 0, 0
1486824571.5175104, -1559, -2048, -8, -20, -477, -12, -17, -13, 0, 0
1486824571.5175304, -1563, -2048, -9, -27, -482, -4, -6, -6, 0, 0
1486824571.5175495, -1560, -2048, -7, -33, -495, -10, -10, -6, 0, 0
1486824571.5175693, -1561, -2048, -9, -39, -492, -11, -12, -11, 0, 0
1486824571.5175889, -1556, -2048, -8, -25, -482, -13, -9, -8, 0, 0
1486824571.5176082, -1561, -2048, -9, -24, -483, -12, -14, -7, 0, 0
1486824571.5176272, -1559, -2048, -8, -37, -486, -11, -10, -9, 0, 0
1486824571.519254, -1559, -2048, -8, -43, -490, -12, -15, -7, 0, 0
1486824571.5193257, -1559, -2048, -8, -34, 14891, -5648, 249, -2056, 0, 0
1486824571.5193524, -1562, -2048, -8, -26, -466, -15, -23, -5, 0, 0
1486824571.5193748, -1559, -2048, -8, -20, -477, -12, -17, -13, 0, 0
1486824571.5193956, -1560, -2048, -8, -37, -487, -15, -10, -4, 0, 0
1486824571.5194159, -1558, -2048, -8, -31, -481, -7, -8, -6, 0, 0
1486824571.5194364, -1561, -2048, -9, -39, -492, -11, -12, -11, 0, 0
1486824571.519456, -1560, -2048, -9, -14, -464, -13, -12, -1, 0, 0
1486824571.5194755, -1562, -2048, -8, -30, -479, -9, -12, -11, 0, 0
1486824571.519495, -1560, -2048, -8, -37, -486, -11, -10, -9, 0, 0
1486824571.5195146, -1564, -2048, -9, -26, -460, 2, -7, -13, 0, 0
1486824571.519534, -1563, -2048, -9, -12, -444, -3, -9, -8, 0, 0
1486824571.5195544, -1563, -2048, -10, -16, -466, -15, -23, -5, 0, 0
1486824571.5195847, -1562, -2048, -9, -34, -485, -11, -6, -11, 0, 0
1486824571.519605, -1561, -2048, -9, -38, -493, -17, -18, -17, 0, 0
1486824571.5196247, -1570, -2048, -9, -30, -481, -7, -8, -6, 0, 0
1486824571.5196443, -1563, -2048, -9, -17, -470, -11, -16, -14, 0, 0
1486824571.5196636, -1563, -2048, -9, -24, -472, -11, -12, -8, 0, 0
1486824571.5196905, -1561, -2048, -9, -41, -492, -9, -12, -11, 0, 0
1486824571.5197108, -1567, -2048, -7, -43, -480, -12, -13, -12, 0, 0
1486824571.51973, -1561, -2048, -9, -28, -475, -14, -15, -8, 0, 0
1486824571.5197537, -1566, -2048, -8, -16, -474, -11, -10, -8, 0, 0
1486824571.5197735, -1564, -2048, -8, -33, -488, -13, -15, -13, 0, 0
1486824571.520045, -1566, -2048, -8, -47, -505, -10, -7, -10, 0, 0
1486824571.520075, -1570, -2048, -9, -46, -489, -12, -9, -17, 0, 0
1486824571.5200965, -1566, -2048, -9, -32, -478, -13, -8, 4, 0, 0
1486824571.5201173, -1565, -2048, -9, -22, -473, -14, -18, -10, 0, 0
1486824571.5201373, -1566, -2048, -8, -39, -490, -7, -15, -1, 0, 0
1486824571.5201569, -1576, -2048, -9, -44, -488, 5, -9, -5, 0, 0
1486824571.5201764, -1569, -2048, -8, -43, -489, -6, -6, -5, 0, 0
1486824571.5201962, -1575, -2048, -8, -30, -480, -7, -15, -8, 0, 0
1486824571.5202188, -1567, -2048, -8, -27, -474, -5, -14, -6, 0, 0
1486824571.5202394, -1570, -2048, -8, -42, -486, -15, -18, -2, 0, 0
1486824571.5202599, -1570, -2048, -8, -58, -496, -9, -16, -10, 0, 0
1486824571.5202796, -1573, -2048, -8, -47, -484, -11, -16, -8, 0, 0
1486824571.5202992, -1573, -2048, -8, -28, -478, -11, -5, 0, 0, 0
1486824571.5203204, -1573, -2048, -9, -43, -479, -10, -8, -10, 0, 0
1486824571.5203412, -1589, -2048, -9, -58, -479, -10, -8, -6, 0, 0
1486824571.5203872, -1581, -2048, -8, -69, -488, -7, -8, -3, 0, 0
1486824571.5204072, -1589, -2048, -7, -62, -481, -8, -12, -2, 0, 0
1486824571.5204272, -1581, -2048, -9, -43, -470, -14, -16, -17, 0, 0
1486824571.5204473, -1580, -2048, -8, -39, -470, -14, -14, -8, 0, 0
1486824571.5204697, -1589, -2048, -8, -47, -482, -8, -11, -9, 0, 0
1486824571.52049, -1591, -2048, -9, -63, -493, -14, -12, -2, 0, 0
1486824571.5205092, -1589, -2048, -8, -56, -477, -17, -16, -8, 0, 0
1486824571.520528, -1591, -2048, -8, -47, -480, -11, -5, 0, 0, 0
1486824571.52085, -1596, -2048, -8, -54, -480, -7, -13, -11, 0, 0
1486824571.520888, -1610, -2048, -8, -59, -491, -12, -12, -8, 0, 0
1486824571.520914, -1614, -2048, -8, -64, -489, -7, -8, -3, 0, 0
1486824571.5209363, -1617, -2048, -8, -53, -483, -15, -20, -10, 0, 0
1486824571.5209572, -1616, -2048, -8, -45, -472, -11, -16, -10, 0, 0
1486824571.5209823, -1624, -2048, -8, -40, -470, -10, -15, -8, 0, 0
1486824571.5210035, -1648, -2048, -8, -49, -479, -11, -10, -1, 0, 0
1486824571.5210235, -1643, -2048, -8, -58, -486, -10, -9, -9, 0, 0
1486824571.5210433, -1641, -2048, -8, -48, -479, -17, -16, -8, 0, 0
1486824571.5210629, -1646, -2048, -8, -38, -466, -14, -16, -13, 0, 0
1486824571.5210826, -1663, -2048, -8, -41, -476, -6, -9, -10, 0, 0
1486824571.5211024, -1662, -2048, -9, -53, -489, -12, -12, -8, 0, 0
1486824571.5211222, -1668, -2048, -9, -58, -489, -11, -9, -7, 0, 0
1486824571.5211418, -1666, -2048, -9, -47, -483, -8, -13, -15, 0, 0
1486824571.5211616, -1668, -2048, -9, -47, -489, -16, -18, -6, 0, 0
1486824571.521181, -1675, -2048, -8, -55, -488, -11, -10, -5, 0, 0
1486824571.5212033, -1675, -2048, -7, -61, -500, -17, -12, -5, 0, 0
1486824571.5212252, -1680, -2048, -8, -60, -497, -14, -15, -9, 0, 0
1486824571.5212455, -1679, -2048, -8, -50, -483, -14, -16, -6, 0, 0
1486824571.5212648, -1690, -2048, -8, -39, -487, -18, -18, -13, 0, 0
1486824571.521284, -1688, -2048, -8, -50, -491, -18, -15, -11, 0, 0
1486824571.525996, -1662, -2048, -9, -53, -489, -12, -9, -8, 0, 0
1486824571.526068, -1697, -2048, -9, -60, -492, -9, -6, -1, 0, 0
1486824571.5261056, -1698, -2048, -9, -46, -487, -20, -12, -2, 0, 0
1486824571.5261283, -1703, -2048, -9, -47, -489, -16, -18, -6, 0, 0
1486824571.5261493, -1709, -2048, -7, -50, -481, -11, -12, -11, 0, 0
1486824571.526171, -1715, -2048, -7, -59, -497, -10, -17, -12, 0, 0
1486824571.5261908, -1719, -2048, -9, -60, -497, -14, -15, -9, 0, 0
1486824571.5262113, -1722, -2048, -8, -31, -471, -13, -12, -16, 0, 0
1486824571.5262313, -1729, -2048, -7, -27, -468, -12, -11, -8, 0, 0
1486824571.526251, -1744, -2048, -8, -36, -481, -18, -15, -11, 0, 0
1486824571.5262702, -1746, -2048, -10, -48, -487, -9, -14, -9, 0, 0
1486824571.5262897, -1738, -2048, -9, -47, -486, -14, -21, -15, 0, 0
1486824571.5263088, -1741, -2048, -8, -37, -470, -20, -12, -2, 0, 0
1486824571.526328, -1750, -2048, -9, -33, -469, -16, -16, -16, 0, 0
1486824571.5263476, -1757, -2048, -10, -43, -486, -12, -12, -11, 0, 0
1486824571.5263667, -1762, -2048, -8, -55, -495, -6, -9, -12, 0, 0
1486824571.5263863, -1764, -2048, -8, -44, -481, -16, -11, -11, 0, 0
1486824571.5264056, -1760, -2048, -8, -30, -476, -15, -16, -13, 0, 0
1486824571.5264251, -1775, -2048, -8, -28, -476, -13, -18, -15, 0, 0
1486824571.52645, -1784, -2048, -7, -39, -489, -19, -20, -13, 0, 0
1486824571.5264707, -1796, -2048, -8, -45, -493, -19, -14, -10, 0, 0
1486824571.5264907, -1790, -2048, -7, -40, -478, -7, -14, -8, 0, 0
1486824571.5265098, -1797, -2048, -8, -39, -478, -13, -12, -6, 0, 0
1486824571.5278523, -1798, -2048, -7, -41, -478, -15, -15, -9, 0, 0
1486824571.527927, -1810, -2048, -7, -53, -497, -10, -12, -9, 0, 0
1486824571.5279546, -1814, -2048, -8, -61, -490, -14, -18, -11, 0, 0
1486824571.5279782, -1816, -2048, -7, -52, -483, -19, -21, -16, 0, 0
1486824571.5279996, -1819, -2048, -8, -36, -470, -15, -16, -13, 0, 0
1486824571.5280201, -1819, -2048, -8, -36, -474, -18, -12, -8, 0, 0
1486824571.5280402, -1834, -2048, -7, -42, -486, -12, -10, -11, 0, 0
1486824571.528061, -1827, -2048, -8, -54, -480, -13, -14, -10, 0, 0
1486824571.5281198, -1822, -2048, -8, -39, -474, -14, -17, -8, 0, 0
1486824571.5281615, -1820, -2048, -8, -22, -478, -15, -20, -11, 0, 0
1486824571.5283275, -1844, -2048, -7, -34, -484, -13, -18, -9, 0, 0
1486824571.5283527, -1859, -2048, -8, -48, -489, 0, -8, -2, 0, 0
1486824571.5283737, -1848, -2048, -8, -40, -493, -2, -9, -9, 0, 0
1486824571.5284014, -1859, -2048, -9, -23, -463, -12, -13, -10, 0, 0
1486824571.5284255, -1859, -2048, -8, -7, -460, -9, -9, -13, 0, 0
1486824571.5284464, -1875, -2048, -9, -18, -474, -11, -14, -11, 0, 0
1486824571.5284672, -1884, -2048, -8, -32, -490, -12, -10, -11, 0, 0
1486824571.528487, -1872, -2048, -9, -36, -485, -16, -13, -11, 0, 0
1486824571.5285072, -1870, -2048, -8, -18, -472, -15, -15, -7, 0, 0
1486824571.5285301, -1872, -2048, -8, -18, -475, -12, -9, -11, 0, 0
1486824571.5285504, -1879, -2048, -9, -29, -482, -10, -10, -5, 0, 0
1486824571.5285704, -1893, -2048, -9, -42, -491, -9, -18, -10, 0, 0
1486824571.528598, -1890, -2048, -9, -43, -484, -13, -12, -10, 0, 0
1486824571.5292773, -1884, -2048, -9, -21, -478, -10, -13, 0, 0, 0
1486824571.5293446, -1896, -2048, -8, -23, -475, -13, -10, -3, 0, 0
1486824571.529371, -1908, -2048, -9, -32, -496, -11, -14, -7, 0, 0
1486824571.5293937, -1916, -2048, -8, -42, -495, -13, -13, -10, 0, 0
1486824571.5294147, -1910, -2048, -9, -36, -496, -11, -18, -10, 0, 0
1486824571.5294352, -1905, -2048, -9, -19, -480, -16, -14, -7, 0, 0
1486824571.5294552, -1917, -2048, -8, -20, -475, -18, -11, -10, 0, 0
1486824571.5294747, -1924, -2048, -9, -26, -486, -15, -9, -6, 0, 0
1486824571.529495, -1934, -2048, -9, -38, -492, -25, -15, -7, 0, 0
1486824571.5295146, -1922, -2048, -9, -31, -482, -15, -15, -12, 0, 0
1486824571.529534, -1923, -2048, -9, -10, -476, -16, -14, -12, 0, 0
1486824571.5295541, -1927, -2048, -7, -21, -498, -21, -16, -13, 0, 0
1486824571.5295813, -1939, -2048, -8, -30, -496, -13, -13, -8, 0, 0
1486824571.5296013, -1938, -2048, -9, -38, -498, -9, -12, -17, 0, 0
1486824571.529621, -1937, -2048, -9, -26, -482, -12, -17, -17, 0, 0
1486824571.5296407, -1943, -2048, -9, -19, -480, -16, -14, -7, 0, 0
1486824571.5296605, -1956, -2048, -9, -15, -489, -17, -12, -12, 0, 0
1486824571.5296798, -1964, -2048, -8, -31, -493, -17, -16, -8, 0, 0
1486824571.5297024, -1964, -2048, -9, -39, -492, -25, -15, -7, 0, 0
1486824571.5297227, -1957, -2048, -8, -31, -486, -16, -12, -4, 0, 0
1486824571.5297441, -1966, -2048, -9, -16, -471, -16, -18, -11, 0, 0
1486824571.5297668, -1974, -2048, -9, -22, -498, -21, -16, -13, 0, 0
1486824571.5297866, -1979, -2048, -9, -34, -494, -16, -18, -13, 0, 0
1486824571.5298095, -1975, -2048, -8, -33, -484, -9, -12, -14, 0, 0
1486824571.5327828, -1972, -2048, -8, -25, -482, -12, -17, -17, 0, 0
1486824571.532884, -1977, -2048, -9, -14, -481, -9, -16, -12, 0, 0
1486824571.532911, -1984, -2048, -8, -26, -492, -11, -15, -5, 0, 0
1486824571.5329342, -1992, -2048, -9, -46, -500, -14, -12, -8, 0, 0
1486824571.532956, -1986, -2048, -9, -50, -504, -17, -16, -8, 0, 0
1486824571.5329764, -1981, -2048, -9, -43, -491, -14, -14, 0, 0, 0
1486824571.532997, -1996, -2048, -9, -31, -489, -17, -12, -11, 0, 0
1486824571.533017, -1990, -2048, -9, -30, -483, -11, -16, -12, 0, 0
1486824571.5330374, -2005, -2048, -9, -45, -506, -19, -16, -14, 0, 0
1486824571.533057, -2000, -2048, -9, -47, -511, -13, -16, -15, 0, 0
1486824571.533077, -1998, -2048, -8, -36, -499, -19, -21, -13, 0, 0
1486824571.533098, -1994, -2048, -8, -30, -496, -16, -21, -11, 0, 0
1486824571.533118, -2003, -2048, -9, -34, -503, -11, -15, -5, 0, 0
1486824571.533138, -2010, -2048, -10, -47, -515, -24, -17, -10, 0, 0
1486824571.5331576, -2007, -2048, -8, -48, -511, -17, -16, -10, 0, 0
1486824571.5331776, -2002, -2048, -9, -34, -486, -14, -14, 0, 0, 0
1486824571.5331974, -2014, -2048, -8, -25, -490, -19, -22, -12, 0, 0
1486824571.5332167, -2018, -2048, -8, -41, -504, -13, -16, -15, 0, 0
1486824571.5332365, -2029, -2048, -8, -47, -507, -11, -16, -14, 0, 0
1486824571.5332563, -2020, -2048, -8, -45, -500, -11, -14, -14, 0, 0
1486824571.5332766, -2024, -2048, -8, -31, -490, -6, -16, -12, 0, 0
1486824571.5332956, -2034, -2048, -8, -33, -488, -19, -18, -9, 0, 0
1486824571.5333154, -2040, -2048, -8, -39, -500, -16, -11, -12, 0, 0
1486824571.533613, -2048, -2048, -8, -48, -512, -15, -11, -9, 0, 0
1486824571.5336916, -1931, -1126, -14, -77, -437, -20, -12, -8, 0, 0
1486824571.5337284, -1927, -1133, -11, -61, -416, -19, -8, -13, 0, 0
1486824571.5337646, -1936, -1131, -12, -54, -412, -15, -14, -7, 0, 0
1486824571.5359375, -1934, -1131, -12, -65, -426, -18, -19, -17, 0, 0
1486824571.5369039, -1937, -1129, -13, -73, -446, -17, -4, -4, 0, 0
1486824571.5383518, -1923, -1128, -14, -71, -431, -18, -15, -10, 0, 0
1486824571.5509598, -1926, -1132, -13, -55, -408, -13, -9, -8, 0, 0
1486824571.551668, -1929, -1133, -12, -51, -414, -16, -7, -11, 0, 0
1486824571.5525775, -1936, -1128, -12, -57, -425, -18, -7, -17, 0, 0
1486824571.5550704, -1939, -1128, -12, -79, -442, -20, -13, -12, 0, 0
1486824571.566021, -1929, -1128, -13, -57, -416, -11, -6, -8, 0, 0
1486824571.5669749, -1926, -1131, -13, -42, -407, -13, -16, -16, 0, 0
1486824571.5686777, -1927, -1124, -12, -54, -412, -15, -12, -16, 0, 0
1486824571.573407, -1935, -1116, -14, -58, -422, -17, -11, -12, 0, 0
1486824571.5744195, -1922, -1121, -13, -64, -428, -23, -16, -11, 0, 0
1486824571.575312, -1934, -1121, -13, -57, -431, -18, -15, -10, 0, 0
1486824571.588389, -1940, -1127, -12, -39, -415, -18, -12, -11, 0, 0
1486824571.588644, -1947, -1120, -12, -52, -400, -18, -11, -3, 0, 0
1486824571.5916924, -1936, -1128, -12, -57, -425, -18, -7, -17, 0, 0
1486824571.60344, -1991, -1125, -13, -89, -429, -17, -4, -8, 0, 0
1486824571.6044385, -1992, -1115, -13, -76, -417, -13, -15, -15, 0, 0
1486824571.6053689, -2028, -1125, -13, -42, -407, -13, -16, -16, 0, 0
1486824571.6108494, -2048, -1132, -13, -92, -408, -13, -10, -13, 0, 0
1486824571.6118565, -2048, -1129, -13, -109, -414, -13, -10, -8, 0, 0
1486824571.6121771, -2048, -1113, -12, -118, -406, -23, -16, -11, 0, 0
1486824571.633454, -2048, -1137, -13, -111, -390, -21, -13, -9, 0, 0
1486824571.6339808, -2048, -1152, -13, -113, -381, -20, -10, -17, 0, 0
1486824571.6350086, -2048, -1135, -12, -129, -378, -12, -11, -3, 0, 0
1486824571.6394532, -2048, -1142, -12, -145, -385, -11, -5, -13, 0, 0
1486824571.6410496, -2048, -1144, -12, -149, -381, -13, -11, -10, 0, 0
1486824571.6448581, -2048, -1157, -12, -149, -379, -19, -15, -15, 0, 0
1486824571.648379, -2048, -1157, -12, -154, -385, -16, -10, -10, 0, 0
1486824571.6486382, -2048, -1151, -13, -163, -386, -17, -17, -21, 0, 0
1486824571.6500955, -2048, -1145, -12, -179, -406, -18, -10, -8, 0, 0
1486824571.6634033, -2048, -1147, -13, -177, -403, -25, -14, -15, 0, 0
1486824571.6644633, -2048, -1158, -13, -165, -388, -15, -12, -11, 0, 0
1486824571.6653469, -2048, -1157, -13, -164, -388, -19, -9, -12, 0, 0
1486824571.6784399, -2048, -1145, -12, -172, -401, -13, -6, -11, 0, 0
1486824571.6794534, -2048, -1133, -13, -185, -418, -16, -7, -8, 0, 0
1486824571.6809003, -2048, -1124, -12, -189, -420, -16, -11, -22, 0, 0
1486824571.6859143, -2048, -1123, -12, -171, -409, -10, -8, -19, 0, 0
1486824571.6869762, -2048, -1128, -12, -157, -401, -4, -6, -11, 0, 0
1486824571.6898186, -2048, -1116, -12, -168, -417, -13, -9, -18, 0, 0
1486824571.700941, -2048, -1116, -12, -171, -415, -15, -17, -12, 0, 0
1486824571.701177, -2048, -1107, -12, -156, -415, -18, -15, -14, 0, 0
1486824571.7019472, -2048, -1110, -12, -142, -404, -16, -11, -11, 0, 0
1486824571.7159467, -2048, -1104, -13, -143, -410, -14, -14, -16, 0, 0
1486824571.7169476, -2048, -1092, -13, -146, -420, -11, -8, -12, 0, 0
1486824571.7178144, -2048, -1082, -13, -152, -423, -14, -10, -15, 0, 0
1486824571.724192, -2048, -1080, -13, -136, -414, -13, -8, -16, 0, 0
1486824571.7242641, -2048, -1088, -13, -114, -408, -12, -9, -15, 0, 0
1486824571.7245703, -2048, -1089, -12, -111, -411, -12, -3, -8, 0, 0
1486824571.738397, -2048, -1079, -13, -116, -419, -12, -4, -12, 0, 0
1486824571.7387598, -2047, -1079, -13, -118, -425, -18, -27, -19, 0, 0
1486824571.7394469, -2025, -1076, -13, -110, -416, -19, -19, -22, 0, 0
1486824571.7536051, -2003, -1073, -14, -99, -395, -19, -14, -6, 0, 0
1486824571.7539823, -1998, -1073, -12, -93, -414, -14, -10, -18, 0, 0
1486824571.7544627, -1982, -1070, -13, -103, -418, -9, -10, -17, 0, 0
1486824571.760843, -1974, -1064, -12, -104, -422, -12, -7, -12, 0, 0
1486824571.7612538, -1960, -1064, -12, -91, -414, -15, -21, -15, 0, 0
1486824571.7621129, -1949, -1063, -12, -73, -408, -19, -9, -15, 0, 0
1486824571.775786, -1943, -1056, -12, -70, -406, -18, -12, -13, 0, 0
1486824571.776191, -1940, -1048, -12, -85, -417, -10, -12, -12, 0, 0
1486824571.7771716, -1928, -1043, -12, -84, -421, -11, -5, -19, 0, 0
1486824571.798458, -1918, -1052, -12, -74, -410, -7, -4, -8, 0, 0
1486824571.798905, -1904, -1054, -12, -65, -405, -13, -6, -10, 0, 0
1486824571.7996495, -1900, -1041, -12, -70, -420, -17, -12, -9, 0, 0
1486824571.800382, -1891, -1037, -13, -80, -419, -6, -8, -14, 0, 0
1486824571.8059025, -1890, -1036, -12, -79, -418, -11, -11, -16, 0, 0
1486824571.8062634, -1875, -1031, -13, -69, -409, -12, -10, -14, 0, 0
1486824571.8070953, -1949, -1063, -12, -73, -408, -19, -10, -13, 0, 0
1486824571.8134131, -1864, -1023, -12, -71, -419, -16, -8, -12, 0, 0
1486824571.8137732, -1862, -1016, -15, -85, -420, -16, -19, -15, 0, 0
1486824571.8146265, -1847, -1012, -12, -84, -421, -11, -5, -3, 0, 0
1486824571.8284593, -1843, -1021, -11, -72, -411, -9, -4, -14, 0, 0
1486824571.828708, -1847, -1023, -13, -57, -409, -8, -11, -12, 0, 0
1486824571.8296566, -1848, -1013, -12, -66, -420, -17, -12, -9, 0, 0
1486824571.8359065, -1851, -1004, -12, -81, -439, -14, -9, -17, 0, 0
1486824571.8362691, -1850, -1004, -13, -73, -415, -16, -10, -8, 0, 0
1486824571.8371258, -1842, -1011, -13, -60, -404, -12, -10, -14, 0, 0
1486824571.8508465, -1840, -1014, -12, -56, -407, -11, -11, -13, 0, 0
1486824571.851196, -1835, -1005, -13, -61, -400, -15, -14, -16, 0, 0
1486824571.8521612, -1847, -1000, -13, -73, -420, -16, -19, -15, 0, 0
1486824571.865943, -1841, -998, -12, -74, -427, -18, -13, -16, 0, 0
1486824571.8663306, -1825, -994, -13, -63, -408, -19, -9, -13, 0, 0
1486824571.8670175, -1830, -1000, -13, -60, -407, -13, -11, -12, 0, 0
1486824571.8734474, -1838, -990, -12, -67, -429, -25, -15, -13, 0, 0
1486824571.8739078, -1837, -990, -13, -73, -433, -15, -7, -18, 0, 0
1486824571.8747597, -1828, -980, -12, -75, -425, -14, -11, -8, 0, 0
1486824571.888484, -1816, -975, -11, -66, -409, -12, -7, -6, 0, 0
1486824571.8888998, -1821, -969, -12, -59, -411, -14, -8, -7, 0, 0
1486824571.8895893, -1833, -969, -12, -72, -426, -14, -6, -4, 0, 0
1486824571.903396, -1816, -970, -13, -87, -434, -15, -11, -13, 0, 0
1486824571.9037974, -1817, -969, -13, -73, -418, -9, -8, -13, 0, 0
1486824571.9045894, -1811, -975, -11, -60, -401, -17, -15, -17, 0, 0
1486824571.9109304, -1809, -966, -12, -65, -410, -17, -16, -6, 0, 0
1486824571.9113336, -1813, -966, -12, -77, -430, -14, -11, -13, 0, 0
1486824571.9120955, -1810, -957, -12, -83, -431, -8, -4, -11, 0, 0
1486824571.9260743, -1816, -966, -12, -72, -418, -16, -11, -17, 0, 0
1486824571.926541, -1798, -965, -13, -64, -415, -15, -10, -10, 0, 0
1486824571.9271998, -1798, -962, -13, -67, -421, -14, -8, -7, 0, 0
1486824571.9409444, -1802, -955, -12, -73, -425, -16, -12, -15, 0, 0
1486824571.9413362, -1801, -951, -12, -75, -423, -14, -11, -13, 0, 0
1486824571.9421265, -1787, -967, -13, -65, -403, -15, -8, -13, 0, 0
1486824571.9484053, -1787, -964, -13, -56, -399, -10, -13, -11, 0, 0
1486824571.9488804, -1788, -954, -14, -62, -417, -14, -13, -13, 0, 0
1486824571.9494236, -1790, -947, -12, -79, -428, -7, -14, -13, 0, 0
1486824571.9634233, -1783, -946, -12, -83, -425, -10, -13, -14, 0, 0
1486824571.963811, -1779, -949, -12, -71, -426, -10, -6, -10, 0, 0
1486824571.96472, -1775, -949, -13, -62, -405, -7, -9, -17, 0, 0
1486824571.9784107, -1771, -944, -13, -67, -417, -11, -12, -9, 0, 0
1486824571.9788158, -1782, -939, -12, -75, -433, -18, -12, -10, 0, 0
1486824571.9797072, -1770, -945, -12, -73, -424, -14, -11, -13, 0, 0
1486824571.986078, -1765, -947, -13, -61, -411, -9, -12, -18, 0, 0
1486824571.9863088, -1762, -943, -12, -59, -417, -12, -12, -9, 0, 0
1486824571.9871094, -1769, -948, -12, -60, -416, -7, -7, -13, 0, 0
1486824572.000905, -1764, -941, -12, -74, -432, -11, -15, -14, 0, 0
1486824572.001296, -1757, -936, -13, -72, -428, -9, -5, -4, 0, 0
1486824572.0021234, -1746, -939, -13, -61, -407, -9, -7, -10, 0, 0
1486824572.0157967, -1753, -938, -12, -57, -420, -11, -10, -17, 0, 0
1486824572.0161498, -1753, -934, -11, -67, -430, -10, -6, -18, 0, 0
1486824572.0171664, -1761, -929, -12, -84, -444, -15, -10, -12, 0, 0
1486824572.023436, -1759, -921, -12, -81, -431, -17, -11, -14, 0, 0
1486824572.0238638, -1753, -925, -13, -69, -421, -12, -7, -12, 0, 0
1486824572.024487, -1748, -923, -12, -62, -412, -8, -14, -22, 0, 0
1486824572.0310433, -1754, -948, -12, -60, -416, -7, -7, -12, 0, 0
1486824572.0421212, -1758, -909, -13, -82, -432, -17, -17, -19, 0, 0
1486824572.0422258, -1761, -914, -12, -74, -417, -13, -14, -12, 0, 0
1486824572.053427, -1753, -913, -13, -59, -406, -13, -12, -16, 0, 0
1486824572.0542188, -1758, -918, -11, -57, -416, -10, -15, -13, 0, 0
1486824572.0556116, -1758, -909, -11, -63, -417, -18, -17, -8, 0, 0
1486824572.06095, -1760, -911, -12, -66, -416, -13, -9, -15, 0, 0
1486824572.0615313, -1761, -916, -11, -69, -409, -8, -18, -20, 0, 0
1486824572.061914, -1749, -918, -12, -60, -405, -10, -12, -14, 0, 0
1486824572.0631466, -1748, -914, -12, -62, -412, -8, -14, -22, 0, 0
1486824572.0760329, -1757, -916, -11, -58, -411, -10, -14, -13, 0, 0
1486824572.0769577, -1747, -904, -13, -65, -414, -15, -16, -9, 0, 0
1486824572.0783355, -1743, -904, -12, -58, -417, -13, -14, -12, 0, 0
1486824572.0909543, -1735, -906, -12, -47, -401, -9, -12, -13, 0, 0
1486824572.0919726, -1738, -907, -12, -48, -397, -10, -17, -15, 0, 0
1486824572.0926275, -1736, -898, -12, -61, -412, -18, -17, -8, 0, 0
1486824572.0995648, -1742, -897, -12, -62, -406, -18, -10, -10, 0, 0
1486824572.0996444, -1750, -904, -11, -51, -401, -16, -9, -7, 0, 0
1486824572.1006124, -1744, -906, -13, -33, -390, -13, -12, -14, 0, 0
1486824572.1209736, -1737, -907, -12, -29, -386, -10, -6, -10, 0, 0
1486824572.1217742, -1740, -896, -13, -42, -401, -15, -15, -23, 0, 0
1486824572.1223187, -1742, -893, -12, -49, -406, -18, -16, -9, 0, 0
1486824572.1258888, -1730, -899, -11, -41, -393, -10, -12, -17, 0, 0
1486824572.128579, -1718, -902, -13, -30, -393, -17, -14, -22, 0, 0
1486824572.1301534, -1710, -889, -13, -37, -392, -16, -17, -15, 0, 0
1486824572.1359253, -1721, -884, -13, -55, -412, -15, -12, -11, 0, 0
1486824572.136974, -1705, -874, -14, -58, -407, -14, -7, -14, 0, 0
1486824572.13865, -1704, -881, -12, -42, -402, -16, -9, -7, 0, 0
1486824572.1510375, -1714, -893, -12, -34, -390, -17, -11, -16, 0, 0
1486824572.1518886, -1713, -883, -12, -45, -407, -11, -10, -14, 0, 0
1486824572.155532, -1706, -870, -11, -54, -404, -19, -9, -13, 0, 0
1486824572.1669903, -1706, -872, -13, -54, -405, -17, -11, -7, 0, 0
1486824572.1681387, -1688, -874, -13, -43, -388, -17, -12, -14, 0, 0
1486824572.1682227, -1692, -875, -12, -33, -391, -17, -14, -22, 0, 0
1486824572.173457, -1701, -870, -13, -50, -405, -12, -11, -20, 0, 0
1486824572.174557, -1695, -862, -12, -64, -412, -17, -13, -14, 0, 0
1486824572.1748447, -1704, -863, -13, -61, -410, -12, -7, -14, 0, 0
1486824572.188458, -1690, -857, -11, -47, -401, -13, -5, -15, 0, 0
1486824572.1894884, -1697, -868, -12, -41, -403, -11, -10, -15, 0, 0
1486824572.1915455, -1703, -861, -11, -57, -407, -17, -11, -14, 0, 0
1486824572.203375, -1699, -855, -13, -59, -412, -15, -14, -16, 0, 0
1486824572.2044628, -1684, -857, -12, -62, -414, -15, -11, -14, 0, 0
1486824572.2054093, -1674, -855, -12, -54, -399, -9, -13, -19, 0, 0
1486824572.2108686, -1676, -854, -12, -52, -394, -13, -14, -9, 0, 0
1486824572.2115607, -1672, -846, -12, -62, -413, -9, -15, -16, 0, 0
1486824572.2145293, -1678, -837, -12, -68, -407, -8, -18, -14, 0, 0
1486824572.2261481, -1673, -833, -12, -60, -395, -21, -14, -11, 0, 0
1486824572.2266564, -1678, -840, -13, -47, -390, -12, -12, -17, 0, 0
1486824572.2286153, -1675, -850, -13, -50, -393, -11, -10, -15, 0, 0
1486824572.2409458, -1684, -835, -12, -59, -406, -12, -14, -19, 0, 0
1486824572.241905, -1677, -817, -13, -64, -414, -8, -8, -14, 0, 0
1486824572.2422283, -1676, -836, -13, -56, -403, -15, -11, -14, 0, 0
1486824572.2484047, -1667, -838, -12, -42, -395, -9, -6, -10, 0, 0
1486824572.2494545, -1674, -837, -12, -47, -393, -7, -5, -9, 0, 0
1486824572.2507112, -1673, -829, -12, -59, -406, -11, -5, -16, 0, 0
1486824572.2633855, -1663, -819, -13, -70, -403, -10, -13, -17, 0, 0
1486824572.263723, -1661, -824, -13, -65, -396, -12, -13, -17, 0, 0
1486824572.265471, -1657, -826, -13, -57, -387, -14, -13, -16, 0, 0
1486824572.2794762, -1649, -815, -12, -60, -398, -9, -14, -19, 0, 0
1486824572.279746, -1656, -806, -12, -73, -406, -14, -10, -16, 0, 0
1486824572.2797847, -1657, -808, -12, -75, -408, -12, -10, -13, 0, 0
1486824572.2868981, -1648, -810, -13, -67, -397, -12, -19, -21, 0, 0
1486824572.2872584, -1644, -819, -13, -42, -371, -16, -15, -14, 0, 0
1486824572.2872934, -1649, -815, -12, -47, -396, -18, -16, -19, 0, 0
1486824572.2890687, -1648, -829, -12, -59, -406, -11, -5, -8, 0, 0
1486824572.302103, -1642, -798, -13, -72, -401, -7, -15, -20, 0, 0
1486824572.3091886, -1629, -803, -12, -60, -390, -11, -11, -14, 0, 0
1486824572.3092613, -1629, -798, -13, -57, -387, -14, -13, -16, 0, 0
1486824572.3159099, -1628, -797, -14, -60, -396, -16, -11, -13, 0, 0
1486824572.31876, -1633, -802, -12, -68, -412, -23, -10, -15, 0, 0
1486824572.3234403, -1645, -797, -12, -75, -408, -12, -10, -13, 0, 0
1486824572.324253, -1635, -799, -12, -64, -400, -12, -13, -7, 0, 0
1486824572.3249955, -1630, -800, -13, -51, -387, -12, -5, -9, 0, 0
1486824572.32573, -1627, -794, -12, -54, -396, -18, -16, -19, 0, 0
1486824572.3384128, -1635, -789, -13, -67, -401, -12, -13, -15, 0, 0
1486824572.3392498, -1636, -791, -12, -65, -402, -17, -11, -5, 0, 0
1486824572.3420296, -1633, -797, -12, -54, -390, -11, -11, -14, 0, 0
1486824572.3534524, -1630, -791, -12, -57, -389, -17, -11, -11, 0, 0
1486824572.3544798, -1635, -791, -11, -61, -397, -13, -9, -19, 0, 0
1486824572.3554378, -1627, -784, -12, -77, -413, -23, -10, -15, 0, 0
1486824572.3618994, -1633, -784, -12, -78, -398, -13, -13, -13, 0, 0
1486824572.3625548, -1614, -773, -13, -66, -398, -22, -8, -17, 0, 0
1486824572.3626275, -1621, -780, -13, -61, -396, -12, -5, -9, 0, 0
1486824572.3759985, -1629, -777, -11, -70, -396, -12, -10, -8, 0, 0
1486824572.3769062, -1632, -771, -12, -83, -413, -16, -14, -8, 0, 0
1486824572.3776205, -1624, -772, -13, -78, -404, -14, -15, -13, 0, 0
1486824572.3909342, -1612, -773, -13, -56, -397, -16, -9, -22, 0, 0
1486824572.3919227, -1618, -780, -12, -55, -399, -11, -10, -12, 0, 0
1486824572.3933992, -1617, -769, -13, -72, -410, -19, -13, -16, 0, 0
1486824572.3985026, -1619, -763, -13, -80, -414, -18, -13, -16, 0, 0
1486824572.399286, -1620, -768, -12, -73, -403, -23, -13, -15, 0, 0
1486824572.4026625, -1604, -771, -12, -63, -401, -11, -12, -19, 0, 0
1486824572.4144824, -1606, -768, -12, -63, -404, -14, -8, -14, 0, 0
1486824572.4145553, -1617, -759, -12, -77, -409, -7, -12, -9, 0, 0
1486824572.4154437, -1619, -758, -12, -80, -410, -21, -14, -11, 0, 0
1486824572.4284222, -1612, -757, -12, -68, -397, -19, -13, -20, 0, 0
1486824572.4294655, -1605, -771, -12, -51, -387, -17, -14, -14, 0, 0
1486824572.4302979, -1610, -771, -12, -56, -375, -11, -10, -12, 0, 0
1486824572.4359598, -1616, -760, -11, -73, -402, -13, -10, -12, 0, 0
1486824572.436943, -1608, -756, -12, -73, -407, -6, -11, -20, 0, 0
1486824572.4374468, -1594, -767, -12, -62, -393, -11, -7, -15, 0, 0
1486824572.4516273, -1593, -772, -11, -52, -378, -8, -11, -12, 0, 0
1486824572.4534447, -1590, -756, -11, -64, -395, -7, -15, -12, 0, 0
1486824572.453751, -1602, -753, -11, -83, -407, -13, -8, -15, 0, 0
1486824572.4661071, -1600, -760, -12, -63, -391, -15, -5, -16, 0, 0
1486824572.466954, -1596, -777, -12, -42, -384, -18, -11, -15, 0, 0
1486824572.467927, -1588, -776, -12, -37, -384, -15, -12, -14, 0, 0
1486824572.47347, -1595, -779, -12, -34, -375, -14, -11, -13, 0, 0
1486824572.4745276, -1584, -762, -12, -57, -381, -10, -13, -15, 0, 0
1486824572.4756436, -1584, -765, -11, -55, -387, -6, -11, -20, 0, 0
1486824572.4884012, -1575, -765, -11, -55, -372, -11, -10, -19, 0, 0
1486824572.489477, -1575, -767, -11, -39, -372, -11, -16, -19, 0, 0
1486824572.4935179, -1581, -766, -12, -40, -377, -10, -15, -12, 0, 0
1486824572.503451, -1575, -759, -12, -48, -395, -8, -13, -21, 0, 0
1486824572.5037415, -1580, -762, -12, -38, -381, -9, -10, -7, 0, 0
1486824572.5060334, -1579, -769, -13, -25, -366, -8, -11, -15, 0, 0
1486824572.5109613, -1571, -767, -11, -17, -357, -11, -8, -11, 0, 0
1486824572.5118043, -1572, -765, -12, -29, -366, -12, -8, -15, 0, 0
1486824572.5124977, -1575, -758, -12, -46, -382, -7, -18, -19, 0, 0
1486824572.513958, -1566, -765, -11, -55, -387, -15, -11, -12, 0, 0
1486824572.5258682, -1563, -758, -11, -27, -360, -6, -13, -15, 0, 0
1486824572.5268805, -1560, -757, -11, -23, -355, -8, -7, -21, 0, 0
1486824572.5293722, -1563, -754, -12, -40, -377, -10, -12, -16, 0, 0
1486824572.5417368, -1570, -753, -13, -48, -382, -14, -8, -15, 0, 0
1486824572.5422418, -1561, -746, -12, -50, -381, -16, -13, -19, 0, 0
1486824572.5423126, -1556, -750, -11, -25, -366, -8, -11, -15, 0, 0
1486824572.5484407, -1555, -754, -12, -29, -363, -16, -15, -19, 0, 0
1486824572.549455, -1564, -750, -13, -43, -377, -9, -9, -18, 0, 0
1486824572.5505292, -1567, -747, -11, -50, -380, -7, -18, -19, 0, 0
1486824572.5634181, -1564, -748, -11, -50, -370, -8, -15, -15, 0, 0
1486824572.5643928, -1542, -744, -12, -35, -364, -16, -20, -25, 0, 0
1486824572.5657392, -1549, -747, -12, -35, -372, -21, -7, -21, 0, 0
1486824572.5784402, -1560, -740, -13, -47, -389, -9, -9, -6, 0, 0
1486824572.57938, -1548, -733, -12, -58, -391, -13, -12, -6, 0, 0
1486824572.580538, -1551, -742, -13, -49, -385, -12, -8, -19, 0, 0
1486824572.5858898, -1548, -751, -12, -37, -383, -7, -11, -16, 0, 0
1486824572.5861542, -1544, -744, -12, -45, -385, -9, -8, -10, 0, 0
1486824572.5954795, -1540, -732, -12, -66, -403, -6, -8, -15, 0, 0
1486824572.600938, -1540, -723, -11, -69, -404, -12, -13, -18, 0, 0
1486824572.601905, -1532, -731, -12, -54, -381, -8, -9, -17, 0, 0
1486824572.6021602, -1532, -734, -11, -36, -375, -12, -9, -18, 0, 0
1486824572.6159837, -1529, -736, -12, -37, -381, -13, -11, -13, 0, 0
1486824572.6168644, -1545, -730, -13, -51, -388, -12, -16, -16, 0, 0
1486824572.6184409, -1539, -725, -12, -60, -399, -17, -12, -6, 0, 0
1486824572.6236393, -1533, -730, -12, -49, -386, -10, -6, -12, 0, 0
1486824572.6310318, -1529, -737, -12, -37, -375, -14, -16, -12, 0, 0
1486824572.632991, -1531, -730, -11, -42, -392, -14, -8, -10, 0, 0
1486824572.6385481, -1528, -722, -13, -56, -397, -20, -23, -19, 0, 0
1486824572.6393816, -1526, -718, -12, -52, -388, -16, -14, -11, 0, 0
1486824572.6402268, -1522, -719, -13, -42, -384, -9, -6, -10, 0, 0
1486824572.6534462, -1516, -726, -12, -29, -373, -15, -14, -18, 0, 0
1486824572.6544316, -1528, -720, -12, -31, -380, -11, -17, -17, 0, 0
1486824572.6548355, -1533, -725, -11, -43, -383, -12, -16, -16, 0, 0
1486824572.6610332, -1525, -718, -13, -46, -392, -11, -12, -15, 0, 0
1486824572.6619055, -1520, -723, -13, -31, -373, -18, -11, -14, 0, 0
1486824572.666085, -1509, -718, -12, -25, -373, -15, -16, -12, 0, 0
1486824572.6759746, -1531, -723, -13, -31, -373, -11, -10, -16, 0, 0
1486824572.676824, -1535, -720, -12, -43, -381, -15, -14, -14, 0, 0
1486824572.6785908, -1532, -719, -13, -46, -387, -17, -11, -10, 0, 0
1486824572.69096, -1524, -727, -13, -29, -361, -16, -12, -19, 0, 0
1486824572.6917725, -1523, -727, -13, -18, -363, -11, -14, -21, 0, 0
1486824572.6935139, -1523, -719, -13, -33, -378, -9, -12, -15, 0, 0
1486824572.6984384, -1519, -712, -12, -48, -385, -10, -15, -14, 0, 0
1486824572.6991231, -1516, -716, -12, -48, -379, -9, -13, -24, 0, 0
1486824572.7018814, -1514, -719, -12, -32, -366, -18, -11, -14, 0, 0
1486824572.7133813, -1507, -719, -12, -29, -358, -8, -11, -22, 0, 0
1486824572.71439, -1514, -710, -12, -40, -368, -4, -18, -21, 0, 0
1486824572.7163043, -1511, -713, -13, -43, -375, -9, -14, -14, 0, 0
1486824572.7284358, -1507, -707, -12, -42, -374, -12, -11, -20, 0, 0
1486824572.7293382, -1499, -702, -12, -32, -359, -11, -9, -13, 0, 0
1486824572.7302754, -1511, -708, -12, -32, -368, -14, -15, -21, 0, 0
1486824572.7360072, -1515, -701, -12, -42, -378, -22, -11, -6, 0, 0
1486824572.7367268, -1510, -694, -12, -51, -379, -17, -14, -13, 0, 0
1486824572.7374227, -1506, -697, -12, -48, -384, -17, -10, -19, 0, 0
1486824572.7383537, -1514, -719, -12, -32, -366, -11, -17, -21, 0, 0
1486824572.7511425, -1499, -700, -12, -28, -367, -19, -19, -23, 0, 0
1486824572.7533906, -1505, -691, -12, -45, -387, -17, -10, -21, 0, 0
1486824572.7660263, -1508, -682, -12, -55, -388, -15, -8, -20, 0, 0
1486824572.766865, -1494, -690, -11, -50, -385, -13, -10, -21, 0, 0
1486824572.7699387, -1490, -693, -12, -41, -381, -13, -9, -13, 0, 0
1486824572.7734787, -1492, -691, -13, -40, -377, -19, -21, -17, 0, 0
1486824572.773847, -1496, -685, -12, -52, -388, -13, -13, -19, 0, 0
1486824572.7749894, -1490, -673, -12, -64, -400, -16, -17, -15, 0, 0
1486824572.7761977, -1484, -681, -13, -48, -384, -17, -10, -19, 0, 0
1486824572.7884712, -1490, -685, -13, -44, -369, -16, -18, -17, 0, 0
1486824572.7893183, -1478, -678, -12, -39, -375, -14, -15, -17, 0, 0
1486824572.790136, -1487, -683, -12, -45, -387, -17, -10, -17, 0, 0
1486824572.8034484, -1490, -673, -12, -61, -385, -16, -9, -12, 0, 0
1486824572.8044262, -1478, -677, -11, -46, -383, -22, -9, -12, 0, 0
1486824572.8055928, -1477, -688, -12, -37, -381, -13, -9, -13, 0, 0
1486824572.810943, -1481, -682, -12, -41, -377, -13, -12, -18, 0, 0
1486824572.811753, -1488, -675, -13, -55, -381, -12, -9, -16, 0, 0
1486824572.8141248, -1491, -678, -11, -57, -389, -16, -17, -15, 0, 0
1486824572.8259697, -1481, -673, -12, -50, -375, -18, -7, -15, 0, 0
1486824572.8263721, -1482, -676, -11, -37, -363, -22, -20, -13, 0, 0
1486824572.835034, -1489, -681, -13, -35, -372, -14, -15, -17, 0, 0
1486824572.8409688, -1486, -674, -12, -41, -379, -18, -13, -17, 0, 0
1486824572.8416593, -1487, -672, -12, -41, -371, -16, -11, -12, 0, 0
1486824572.845377, -1475, -675, -12, -30, -360, -22, -9, -12, 0, 0
1486824572.8484483, -1478, -679, -14, -26, -366, -20, -16, -16, 0, 0
1486824572.8494287, -1478, -670, -12, -41, -368, -16, -12, -9, 0, 0
1486824572.8505268, -1484, -663, -12, -49, -387, -12, -9, -16, 0, 0
1486824572.8634017, -1480, -665, -13, -53, -375, -15, -11, -13, 0, 0
1486824572.8641856, -1470, -667, -12, -42, -368, -15, -15, -10, 0, 0
1486824572.865543, -1463, -667, -13, -29, -360, -14, -8, -12, 0, 0
1486824572.8792207, -1482, -665, -12, -38, -371, -12, -16, -14, 0, 0
1486824572.879303, -1474, -655, -13, -49, -377, -10, -12, -15, 0, 0
1486824572.8824108, -1466, -655, -13, -47, -372, -19, -17, -14, 0, 0
1486824572.8855958, -1462, -660, -12, -34, -362, -14, -5, -6, 0, 0
1486824572.8865826, -1455, -664, -12, -31, -365, -22, -14, -13, 0, 0
1486824572.8882716, -1464, -657, -12, -44, -390, -16, -12, -9, 0, 0
1486824572.9008996, -1450, -648, -11, -54, -377, -8, -7, -11, 0, 0
1486824572.9016304, -1462, -652, -13, -42, -379, -17, -7, -7, 0, 0
1486824572.902165, -1454, -659, -12, -32, -365, -16, -9, -16, 0, 0
1486824572.9158165, -1449, -651, -12, -33, -365, -18, -12, -8, 0, 0
1486824572.9165661, -1455, -651, -12, -43, -373, -11, -8, -6, 0, 0
1486824572.9190927, -1454, -640, -12, -52, -374, -11, -17, -14, 0, 0
1486824572.9234018, -1449, -646, -12, -45, -371, -19, -16, -17, 0, 0
1486824572.9241369, -1448, -650, -11, -26, -358, -16, -10, -14, 0, 0
1486824572.925549, -1448, -647, -13, -36, -363, -17, -12, -19, 0, 0
1486824572.9384496, -1437, -637, -12, -47, -381, -17, -14, -14, 0, 0
1486824572.9393044, -1442, -637, -12, -55, -378, -13, -15, -10, 0, 0
1486824572.9427497, -1443, -637, -12, -45, -373, -17, -7, -7, 0, 0
1486824572.95344, -1436, -638, -12, -36, -352, -14, -12, -17, 0, 0
1486824572.954416, -1436, -640, -11, -32, -365, -11, -12, -16, 0, 0
1486824572.9555936, -1454, -635, -12, -43, -371, -16, -8, -6, 0, 0
1486824572.9609191, -1441, -629, -13, -44, -375, -13, -12, -15, 0, 0
1486824572.9618244, -1432, -628, -12, -33, -355, -14, -18, -16, 0, 0
1486824572.9622521, -1430, -634, -13, -22, -349, -15, -19, -18, 0, 0
1486824572.9759476, -1424, -626, -13, -37, -351, -9, -13, -15, 0, 0
1486824572.9768908, -1471, -623, -12, -63, -381, -17, -9, -6, 0, 0
1486824572.9782026, -1456, -627, -13, -46, -375, -17, -17, -14, 0, 0
1486824572.9909544, -1463, -654, -12, -12, -333, -13, -11, -13, 0, 0
1486824572.9918869, -1489, -673, -13, 2, -323, -20, -13, -10, 0, 0
1486824572.9936945, -1511, -679, -13, 7, -323, -12, -20, -13, 0, 0
1486824572.998471, -1543, -694, -11, 8, -311, -15, -13, -12, 0, 0
1486824572.9991577, -1583, -716, -13, 25, -296, -16, -18, -14, 0, 0
1486824573.0000255, -1592, -736, -13, 56, -273, -13, -18, -17, 0, 0
1486824573.000641, -1374, -634, -13, -22, -349, -15, -19, -18, 0, 0
1486824573.0134842, -1653, -769, -12, 76, -262, -24, -27, -14, 0, 0
1486824573.014425, -1688, -784, -12, 83, -250, -16, -17, -9, 0, 0
1486824573.0154629, -1698, -797, -13, -46, -375, -17, -17, -14, 0, 0
1486824573.0284467, -1713, -813, -12, 119, -222, -12, -8, -10, 0, 0
1486824573.028955, -1720, -821, -11, 130, -232, -14, -17, -8, 0, 0
1486824573.0302072, -1724, -822, -12, 122, -323, -12, -20, -13, 0, 0
1486824573.0358405, -1724, -822, -11, 108, -247, -15, -15, -13, 0, 0
1486824573.0367374, -1715, -825, -12, 115, -237, -12, -14, -16, 0, 0
1486824573.037424, -1698, -827, -11, 128, -229, -13, -18, -17, 0, 0
1486824573.0510807, -1686, -824, -12, 122, -235, -14, -9, -6, 0, 0
1486824573.0513453, -1677, -816, -11, 109, -249, -18, -14, -9, 0, 0
1486824573.0519304, -1682, -810, -12, 99, -262, -19, -10, -9, 0, 0
1486824573.0668411, -1667, -813, -12, 104, -250, -20, -13, -10, 0, 0
1486824573.068027, -1658, -813, -12, 119, -246, -10, -7, -11, 0, 0
1486824573.068099, -1648, -814, -12, 116, -243, -10, -8, -4, 0, 0
1486824573.0735028, -1654, -804, -13, 108, -272, -16, -10, -6, 0, 0
1486824573.0743475, -1647, -802, -12, 95, -267, -11, -12, -7, 0, 0
1486824573.075938, -1641, -804, -12, 106, -266, -15, -12, -12, 0, 0
1486824573.089772, -1626, -810, -12, 119, -248, -18, -15, -12, 0, 0
1486824573.09605, -1621, -807, -12, 114, -251, -12, -8, -7, 0, 0
1486824573.0976145, -1629, -805, -13, 103, -266, -12, -14, -9, 0, 0
1486824573.1044576, -1622, -796, -11, 91, -273, -18, -7, -14, 0, 0
1486824573.1054006, -1618, -797, -13, 104, -258, -13, -10, -11, 0, 0
1486824573.1083913, -1609, -805, -13, 113, -256, -17, -8, -11, 0, 0
1486824573.114708, -1618, -801, -12, 115, -253, -9, -4, -5, 0, 0
1486824573.11478, -1616, -790, -12, 102, -262, -10, -10, -6, 0, 0
1486824573.1156445, -1615, -792, -13, 100, -270, -6, -15, -10, 0, 0
1486824573.1262937, -1614, -795, -12, 112, -253, -13, -9, -12, 0, 0
1486824573.1290176, -1608, -802, -12, 129, -249, -12, -20, -14, 0, 0
1486824573.1307275, -1612, -798, -13, 126, -248, -8, -12, -7, 0, 0
1486824573.1423752, -1609, -783, -13, 109, -265, -14, -16, -8, 0, 0
1486824573.1424391, -1600, -788, -13, 102, -269, -14, -19, -22, 0, 0
1486824573.1447995, -1596, -788, -12, 112, -250, -14, -15, -14, 0, 0
1486824573.1494694, -1593, -788, -12, 121, -253, -14, -12, -6, 0, 0
1486824573.1523185, -1598, -785, -13, 116, -256, -13, -5, -11, 0, 0
1486824573.1526058, -1609, -782, -12, 107, -273, -17, -12, -14, 0, 0
1486824573.1642015, -1602, -780, -13, 102, -268, -15, -10, -12, 0, 0
1486824573.1642668, -1590, -779, -12, 110, -259, -10, -15, -13, 0, 0
1486824573.1709027, -1596, -782, -14, 117, -249, -12, -20, -14, 0, 0
1486824573.1805296, -1589, -774, -12, 109, -261, -8, -12, -18, 0, 0
1486824573.1815605, -1597, -768, -12, 92, -275, -15, -15, -9, 0, 0
1486824573.1816323, -1579, -763, -12, 90, -266, -18, -19, -22, 0, 0
1486824573.1869478, -1578, -770, -12, 105, -254, -15, -10, -16, 0, 0
1486824573.1892424, -1575, -767, -12, 110, -263, -14, -9, -9, 0, 0
1486824573.1895604, -1591, -763, -12, 103, -271, -14, -17, -11, 0, 0
1486824573.2019155, -1584, -760, -12, 96, -264, -15, -16, -12, 0, 0
1486824573.2021933, -1584, -758, -13, 102, -262, -20, -18, -8, 0, 0
1486824573.2057657, -1572, -764, -13, 113, -251, -24, -11, -9, 0, 0
1486824573.2160804, -1578, -768, -13, 120, -257, -16, -14, -14, 0, 0
1486824573.216635, -1576, -753, -12, 101, -267, -11, -10, -12, 0, 0
1486824573.218943, -1568, -745, -13, 90, -273, -14, -19, -11, 0, 0
1486824573.219233, -1566, -763, -12, 90, -266, -18, -10, -16, 0, 0
1486824573.22701, -1553, -748, -11, 104, -259, -16, -15, -13, 0, 0
1486824573.2270918, -1561, -750, -12, 110, -262, -11, -13, -12, 0, 0
1486824573.2271187, -1555, -763, -12, 103, -271, -14, -17, -13, 0, 0
1486824573.2383409, -1556, -742, -13, 93, -275, -8, -19, -16, 0, 0
1486824573.2390478, -1553, -741, -12, 96, -273, -18, -12, -8, 0, 0
1486824573.241009, -1543, -746, -13, 113, -251, -24, -11, -9, 0, 0
1486824573.2542024, -1539, -740, -12, 107, -261, -12, -23, -17, 50, 1390
1486824573.2554386, -1543, -735, -12, 102, -271, -11, -15, -7, 50, 1390
1486824573.2555015, -1543, -734, -12, 95, -275, -14, -19, -11, 50, 1390
1486824573.260912, -1535, -732, -12, 97, -274, -7, -16, -14, 50, 1390
1486824573.26151, -1530, -742, -13, 112, -260, -17, -14, -6, 50, 1390
1486824573.2628398, -1538, -750, -12, 110, -262, -11, -13, -12, 50, 1390
1486824573.276709, -1540, -730, -13, 101, -272, -12, -10, -5, 50, 1390
1486824573.2774692, -1538, -728, -13, 96, -271, -17, -15, -14, 50, 1390
1486824573.2775104, -1531, -727, -12, 107, -273, -18, -12, -8, 50, 1390
1486824573.2909696, -1537, -734, -12, 115, -264, -14, -13, -14, 50, 1390
1486824573.2913427, -1530, -725, -12, 110, -265, -9, -11, -19, 50, 1390
1486824573.293117, -1525, -719, -13, 101, -282, -11, -15, -7, 50, 1390
1486824573.298394, -1531, -719, -12, 99, -277, -6, -12, -8, 50, 1390
1486824573.2994359, -1529, -724, -12, 106, -267, -16, -12, -11, 50, 1390
1486824573.3017075, -1519, -722, -12, 116, -261, -15, -14, -6, 50, 1390
1486824573.3134775, -1523, -718, -12, 121, -257, -16, -18, -16, 50, 1390
1486824573.3144524, -1533, -713, -12, 107, -267, -16, -9, -14, 50, 1390
1486824573.3150024, -1528, -712, -13, 100, -270, -12, -17, -7, 50, 1390
1486824573.3284686, -1520, -713, -12, 104, -262, -17, -20, -14, 50, 1390
1486824573.3293781, -1527, -716, -12, 111, -253, -12, -11, -18, 50, 1390
1486824573.3309484, -1515, -709, -13, 107, -265, -14, -13, -17, 50, 1390
1486824573.3360531, -1523, -703, -12, 96, -280, -11, -11, -14, 50, 1390
1486824573.3369875, -1519, -697, -11, 92, -280, -20, -12, -9, 50, 1390
1486824573.3387063, -1513, -702, -13, 102, -275, -16, -12, -11, 50, 1390
1486824573.3510313, -1511, -705, -13, 111, -263, -18, -18, -9, 50, 1390
1486824573.351935, -1516, -701, -13, 104, -276, -19, -15, -5, 50, 1390
1486824573.3531494, -1517, -696, -13, 93, -280, -12, -9, -14, 50, 1390
1486824573.365953, -1513, -693, -14, 92, -271, -11, -16, -16, 50, 1390
1486824573.3672206, -1496, -694, -12, 105, -263, -11, -13, -17, 50, 1390
1486824573.3708463, -1487, -696, -12, 110, -253, -8, -14, -18, 50, 1390
1486824573.3734794, -1498, -693, -14, 100, -271, -12, -13, -9, 50, 1390
1486824573.3744678, -1492, -685, -12, 90, -277, -7, -12, -20, 50, 1390
1486824573.3761425, -1491, -692, -13, 92, -280, -5, -15, -16, 50, 1390
1486824573.3886154, -1481, -697, -13, 110, -261, -9, -18, -17, 50, 1390
1486824573.3894477, -1481, -694, -10, 114, -263, -13, -20, -15, 50, 1390
1486824573.3921528, -1491, -689, -13, 102, -269, -11, -14, -13, 50, 1390
1486824573.4034488, -1490, -684, -12, 89, -275, -9, -13, -13, 50, 1390
1486824573.4044428, -1475, -682, -12, 88, -280, -14, -16, -19, 50, 1390
1486824573.4051108, -1469, -690, -13, 104, -266, -12, -9, -12, 50, 1390
1486824573.4109511, -1469, -683, -12, 105, -270, -18, -12, -16, 50, 1390
1486824573.4119284, -1475, -679, -12, 97, -280, -12, -13, -9, 50, 1390
1486824573.4136593, -1471, -673, -12, 83, -279, -7, -12, -20, 50, 1390
1486824573.4262211, -1463, -674, -12, 90, -267, -13, -19, -16, 50, 1390
1486824573.4267418, -1463, -680, -12, 103, -254, -13, -12, -11, 50, 1390
1486824573.4332986, -1455, -676, -12, 100, -258, -13, -12, -15, 50, 1390
1486824573.4409318, -1466, -664, -13, 85, -271, -12, -13, -14, 50, 1390
1486824573.4419625, -1462, -657, -12, 73, -282, -17, -10, -11, 50, 1390
1486824573.4439614, -1452, -664, -12, 77, -284, -15, -14, -10, 50, 1390
1486824573.4485016, -1453, -665, -13, 87, -263, -17, -16, -3, 50, 1390
1486824573.4492185, -1450, -662, -12, 88, -268, -16, -19, -13, 50, 1390
1486824573.4501772, -1454, -655, -13, 76, -278, -14, -14, -14, 50, 1390
1486824573.463483, -1455, -654, -13, 78, -273, -9, -11, -16, 50, 1390
1486824573.4642892, -1449, -661, -13, 87, -267, -17, -15, -18, 50, 1390
1486824573.4650643, -1442, -665, -13, 94, -261, -14, -14, -11, 50, 1390
1486824573.4669585, -1455, -676, -12, 100, -258, -13, -12, -15, 50, 1390
1486824573.4785936, -1450, -652, -12, 74, -279, -14, -16, -14, 50, 1390
1486824573.4793537, -1446, -645, -12, 66, -290, -18, -20, -24, 50, 1390
1486824573.483271, -1440, -664, -12, 77, -284, -15, -14, -10, 50, 1390
1486824573.48599, -1433, -659, -12, 92, -257, -6, -13, -14, 50, 1390
1486824573.4870143, -1438, -650, -12, 92, -262, -7, -17, -14, 50, 1390
1486824573.488745, -1439, -640, -13, 76, -278, -14, -14, -14, 50, 1390
1486824573.5084624, -1433, -637, -13, 76, -274, -9, -14, -20, 50, 1390
1486824573.509346, -1427, -643, -12, 80, -264, -11, -15, -18, 50, 1390
1486824573.5098557, -1427, -647, -13, 83, -261, -14, -14, -11, 50, 1390
1486824573.513487, -1431, -642, -13, 74, -280, -8, -6, -12, 50, 1390
1486824573.516274, -1429, -631, -12, 61, -289, -14, -22, -12, 50, 1390
1486824573.5182266, -1425, -633, -13, 60, -290, -18, -20, -24, 50, 1390
1486824573.5235443, -1409, -637, -13, 69, -275, -10, -17, -20, 50, 1390
1486824573.5243616, -1420, -638, -13, 78, -264, -9, -13, -19, 50, 1390
1486824573.525825, -1411, -629, -13, 71, -262, -7, -17, -14, 50, 1390
1486824573.5384653, -1412, -624, -12, 62, -287, -8, -17, -15, 50, 1390
1486824573.53927, -1407, -626, -12, 62, -270, -11, -18, -16, 50, 1390
1486824573.5416615, -1404, -633, -13, 85, -264, -11, -15, -18, 50, 1390
1486824573.5534475, -1410, -633, -11, 87, -270, -14, -7, -11, 50, 1390
1486824573.5543218, -1413, -626, -12, 76, -280, -7, -9, -17, 50, 1390
1486824573.555424, -1411, -618, -12, 62, -291, -14, -22, -12, 50, 1390
1486824573.56095, -1410, -621, -13, 62, -291, -12, -12, -13, 50, 1390
1486824573.5619895, -1404, -626, -13, 75, -275, -8, -8, -8, 50, 1390
1486824573.565615, -1396, -626, -13, 80, -278, -12, -13, -19, 50, 1390
1486824573.576218, -1413, -621, -13, 69, -283, -13, -19, -16, 50, 1390
1486824573.5779676, -1407, -615, -13, 62, -279, -7, -16, -10, 50, 1390
1486824573.5791667, -1406, -615, -12, 81, -271, -15, -19, -24, 50, 1390
1486824573.5909495, -1405, -625, -12, 101, -265, -7, -17, -21, 50, 1390
1486824573.5918608, -1387, -598, -12, 68, -283, -11, -10, -18, 50, 1390
1486824573.593908, -1361, -571, -12, 39, -285, -4, -7, -10, 50, 1390
1486824573.5984778, -1336, -548, -11, 27, -294, -7, -15, -13, 50, 1390
1486824573.5991182, -1317, -532, -12, 17, -297, -9, -12, -20, 50, 1390
1486824573.6010983, -1279, -511, -12, 14, -301, -7, -11, -10, 50, 1390
1486824573.613481, -1253, -482, -12, -5, -309, -17, -12, -6, 50, 1390
1486824573.614469, -1233, -449, -13, -36, -328, -10, -7, -8, 50, 1390
1486824573.6149995, -1210, -419, -11, -57, -336, -7, -16, -10, 50, 1390
1486824573.6294405, -1186, -402, -11, -58, -338, -13, -8, -13, 50, 1390
1486824573.6299973, -1157, -388, -12, -64, -338, -18, -13, -14, 50, 1390
1486824573.6302843, -1147, -371, -11, -74, -339, -8, -9, -18, 50, 1390
1486824573.6369357, -1140, -352, -12, -103, -366, -10, -11, -20, 50, 1390
1486824573.6412048, -1128, -337, -12, -125, -380, -11, -8, -12, 50, 1390
1486824573.64442, -1106, -320, -12, -122, -382, -20, -13, -13, 50, 1390
1486824573.6518056, -1100, -333, -13, -110, -367, -18, -12, -11, 50, 1390
1486824573.6533475, -1111, -334, -13, -107, -380, -12, -15, -14, 50, 1390
1486824573.6543934, -1116, -333, -12, -119, -378, -16, -15, -17, 50, 1390
1486824573.6669214, -1112, -336, -12, -118, -380, -12, -13, -18, 50, 1390
1486824573.6674623, -1108, -336, -12, -110, -373, -15, -12, -11, 50, 1390
1486824573.673178, -1097, -341, -13, -97, -366, -18, -13, -14, 50, 1390
1486824573.6776068, -1104, -337, -11, -106, -376, -12, -9, -19, 50, 1390
1486824573.6777098, -1108, -323, -11, -123, -394, -15, -3, -18, 50, 1390
1486824573.6781695, -1108, -328, -13, -123, -384, -12, -15, -12, 50, 1390
1486824573.689201, -1103, -332, -12, -111, 15871, 14885, -21008, -19973, 50, 1390
1486824573.6950147, -1093, -321, -12, -108, -371, -13, -13, -11, 50, 1390
1486824573.7043772, -1097, -319, -12, -123, -395, -15, -4, -9, 50, 1390
1486824573.7048357, -1103, -326, -11, -118, -381, -14, -8, -15, 50, 1390
1486824573.7063112, -1099, -328, -12, -101, -371, -7, -8, -8, 50, 1390
1486824573.7110953, -1092, -336, -12, -110, -373, -15, -12, -11, 50, 1390
1486824573.7128205, -1100, -328, -14, -107, -380, -6, -7, -12, 50, 1390
1486824573.7128942, -1097, -324, -12, -127, -395, -3, -4, -15, 50, 1390
1486824573.7261484, -1087, -324, -13, -125, -392, -1, -10, -14, 50, 1390
1486824573.7269604, -1087, -330, -12, -103, -376, -9, -12, -17, 50, 1390
1486824573.7314627, -1087, -335, -13, -93, -369, -6, -14, -11, 50, 1390
1486824573.7410312, -1089, -323, -12, -106, -380, -14, -12, -11, 50, 1390
1486824573.7419283, -1084, -323, -13, -112, -388, -15, -14, -13, 50, 1390
1486824573.7425437, -1086, -321, -12, -114, -391, -16, -17, -15, 50, 1390
1486824573.7432733, -1078, -321, -12, -101, -371, -7, -8, -8, 50, 1390
1486824573.7485673, -1071, -322, -13, -107, -381, -18, -15, -15, 50, 1390
1486824573.749655, -1078, -316, -12, -117, -391, -9, -7, -15, 50, 1390
1486824573.7503076, -1082, -324, -12, -127, -395, -3, -4, -15, 50, 1390
1486824573.7645524, -1074, -318, -13, -113, -384, -12, -13, -10, 50, 1390
1486824573.769477, -1073, -329, -12, -97, -366, -11, -19, -15, 50, 1390
1486824573.7695482, -1083, -329, -13, -90, -369, -6, -14, -11, 50, 1390
1486824573.7860143, -1091, -321, -13, -102, -379, -8, -16, -17, 50, 1390
1486824573.7869039, -1085, -315, -11, -112, -388, -16, -16, -14, 50, 1390
1486824573.7873569, -1079, -322, -11, -101, -376, -16, -17, -15, 50, 1390
1486824573.7902234, -1076, -328, -12, -92, -372, -13, -13, -12, 50, 1390
1486824573.7937782, -1080, -326, -12, -95, -374, -12, -18, -12, 50, 1390
1486824573.7947805, -1086, -320, -13, -111, -388, -9, -7, -15, 50, 1390
1486824573.8009875, -1085, -315, -13, -120, -400, -16, -16, -16, 50, 1390
1486824573.801955, -1082, -320, -12, -103, -379, -12, -13, -17, 50, 1390
1486824573.8026593, -1073, -321, -12, -87, -361, -8, -17, -15, 50, 1390
1486824573.8160973, -1084, -322, -13, -86, -368, -8, -18, -10, 50, 1390
1486824573.816974, -1092, -315, -13, -114, -387, -8, -14, -19, 50, 1390
1486824573.8228498, -1080, -306, -13, -122, -378, -8, -12, -14, 50, 1390
1486824573.8236575, -1077, -310, -12, -115, -371, -7, -11, -13, 50, 1390
1486824573.824374, -1079, -311, -13, -113, -370, -4, -9, -13, 50, 1390
1486824573.8255968, -1083, -305, -13, -116, -373, -7, -18, -12, 50, 1390
1486824573.8393898, -1093, -302, -13, -123, -381, -13, -17, -12, 50, 1390
1486824573.8418367, -1085, -301, -13, -127, -387, -16, -14, -11, 50, 1390
1486824573.8419094, -1081, -307, -12, -112, -367, -12, -13, -17, 50, 1390
1486824573.8535008, -1071, -309, -12, -103, -366, -10, -8, -9, 50, 1390
1486824573.8544629, -1070, -302, -12, -111, -372, -14, -9, -13, 50, 1390
1486824573.8555977, -1066, -295, -12, -125, -376, -13, -14, -19, 50, 1390
1486824573.8610554, -1061, -293, -12, -120, -377, -16, -16, -11, 50, 1390
1486824573.8619733, -1058, -299, -12, -104, -369, -10, -13, -14, 50, 1390
1486824573.863527, -1065, -304, -12, -92, -355, -9, -15, -13, 50, 1390
1486824573.8765128, -1059, -299, -12, -99, -369, -16, -12, -6, 50, 1390
1486824573.8768215, -1066, -292, -12, -114, -385, -6, -18, -26, 50, 1390
1486824573.8825598, -1057, -293, -13, -110, -376, -12, -12, -17, 50, 1390
1486824573.891005, -1061, -296, -13, -96, -361, -9, -14, -13, 50, 1390
1486824573.8919353, -1060, -294, -13, -94, -361, -16, -26, -17, 50, 1390
1486824573.8932424, -1066, -292, -11, -101, -372, -13, -12, -14, 50, 1390
1486824573.8986247, -1066, -286, -12, -116, -384, -14, -17, -19, 50, 1390
1486824573.8991373, -1064, -283, -12, -116, -380, -15, -20, -15, 50, 1390
1486824573.901, -1053, -283, -12, -103, -359, -11, -13, -14, 50, 1390
1486824573.9139152, -1049, -286, -12, -99, -357, -9, -11, -9, 50, 1390
1486824573.9149196, -1058, -281, -12, -108, -373, -19, -14, -11, 50, 1390
1486824573.915275, -1060, -287, -13, -105, -366, -15, -18, -26, 50, 1390
1486824573.9285107, -1061, -289, -12, -96, -373, -19, -12, -15, 50, 1390
1486824573.929367, -1054, -299, -13, -81, -356, -19, -11, -10, 50, 1390
1486824573.9302323, -1055, -302, -12, -76, -363, -17, -10, -17, 50, 1390
1486824573.9359481, -1060, -296, -11, -89, -366, -23, -14, -10, 50, 1390
1486824573.93683, -1046, -291, -13, -103, -376, -17, -9, -12, 50, 1390
1486824573.9375021, -1049, -291, -13, -96, -364, -7, -16, -19, 50, 1390
1486824573.9405985, -1053, -283, -12, -103, -359, -11, -14, -17, 50, 1390
1486824573.9510927, -1037, -285, -14, -87, -359, -15, -16, -20, 50, 1390
1486824573.9548023, -1037, -290, -13, -100, -373, -10, -14, -11, 50, 1390
1486824573.9662309, -1042, -281, -13, -104, -374, -11, -12, -18, 50, 1390
1486824573.9667888, -1032, -283, -13, -95, -359, -8, -16, -19, 50, 1390
1486824573.9689968, -1032, -294, -11, -83, -366, -11, -11, -15, 50, 1390
1486824573.9734776, -1028, -285, -13, -85, -365, -14, -10, -19, 50, 1390
1486824573.974365, -1039, -283, -13, -90, -364, -16, -11, -20, 50, 1390
1486824573.9749634, -1039, -277, -13, -95, -370, -17, -13, -15, 50, 1390
1486824573.977356, -1027, -283, -12, -96, -364, -7, -16, -19, 50, 1390
1486824573.989501, -1029, -289, -12, -70, -348, -13, -11, -18, 50, 1390
1486824573.9931192, -1029, -292, -12, -71, -359, -18, -12, -16, 50, 1390
1486824573.9932015, -1037, -281, -12, -100, -373, -10, -14, -18, 50, 1390
1486824574.0035286, -1032, -277, -12, -96, -372, -21, -14, -17, 50, 1390
1486824574.0044744, -1018, -283, -13, -84, -354, -19, -14, -8, 50, 1390
1486824574.0055273, -1017, -290, -14, -75, -352, -11, -11, -15, 50, 1390
1486824574.011043, -1028, -284, -12, -75, -357, -16, -14, -13, 50, 1390
1486824574.0119853, -1028, -274, -12, -90, -369, -19, -16, -16, 50, 1390
1486824574.0128999, -1027, -276, -13, -92, -368, -17, -13, -15, 50, 1390
1486824574.026057, -1009, -276, -12, -79, -352, -15, -12, -9, 50, 1390
1486824574.0269206, -1017, -279, -12, -73, -349, -9, -7, -10, 50, 1390
1486824574.028364, -1023, -275, -13, -82, -359, -14, -16, -16, 50, 1390
1486824574.0410028, -1024, -276, -12, -95, -372, -18, -12, -10, 50, 1390
1486824574.0419228, -1019, -269, -12, -88, -365, -11, -13, -17, 50, 1390
1486824574.0435946, -1011, -280, -13, -72, -345, -9, -15, -20, 50, 1390
1486824574.0485373, -1007, -280, -14, -69, -351, -11, -10, -10, 50, 1390
1486824574.048892, -1013, -279, -13, -73, -360, -11, -11, -14, 50, 1390
1486824574.0540614, -1020, -273, -12, -82, -364, -13, -20, -18, 50, 1390
1486824574.0636246, -1022, -272, -13, -77, -356, -18, -12, -11, 50, 50
1486824574.0644805, -1010, -271, -12, -63, -350, -15, -6, -15, 50, 50
1486824574.065935, -1011, -278, -13, -62, -345, -9, -7, -10, 50, 50
1486824574.0785418, -1015, -268, -13, -73, -355, -10, -3, -15, 50, 50
1486824574.0794864, -1015, -271, -13, -84, -365, -13, -4, -14, 50, 50
1486824574.079805, -1001, -269, -13, -83, -353, -9, -14, -17, 50, 50
1486824574.0935915, -997, -275, -12, -68, -350, -15, -5, -17, 50, 50
1486824574.094356, -1001, -274, -12, -60, -345, -16, -15, -19, 50, 50
1486824574.0972645, -1006, -266, -11, -70, -351, -19, -11, -9, 50, 50
1486824574.1010048, -1004, -263, -11, -74, -350, -18, -10, -12, 50, 50
1486824574.1035278, -1005, -265, -11, -73, -359, -25, -17, -10, 50, 50
1486824574.103977, -998, -264, -12, -65, -345, -13, -13, -13, 50, 50
1486824574.1160128, -998, -265, -13, -68, -346, -15, -9, -9, 50, 50
1486824574.116933, -998, -259, -13, -86, -357, -19, -13, -16, 50, 50
1486824574.1194456, -1005, -257, -12, -92, -362, -15, -12, -16, 50, 50
1486824574.1235178, -989, -259, -12, -83, -356, -15, -12, -13, 50, 50
1486824574.124418, -988, -260, -12, -71, -343, -10, -6, -14, 50, 50
1486824574.1252153, -995, -257, -12, -71, -351, -19, -16, -15, 50, 50
1486824574.138564, -992, -254, -13, -82, -354, -18, -17, -17, 50, 50
1486824574.1394837, -998, -250, -13, -84, -362, -10, -10, -11, 50, 50
1486824574.140983, -999, -256, -12, -74, -333, -25, -17, -10, 50, 50
1486824574.15354, -995, -259, -12, -67, -332, -6, -11, -16, 50, 50
1486824574.1544504, -995, -258, -14, -67, -349, -14, -14, -14, 50, 50
1486824574.1556559, -1001, -250, -12, -87, -364, -12, -13, -16, 50, 50
1486824574.1610415, -1004, -248, -12, -89, -360, -15, -10, -14, 50, 50
1486824574.1619148, -983, -258, -13, -80, -344, -12, -6, -16, 50, 50
1486824574.1630778, -988, -258, -12, -71, -336, -13, -12, -16, 50, 50
1486824574.1764717, -995, -251, -12, -79, -344, -10, -12, -16, 50, 50
1486824574.176951, -1002, -253, -13, -90, -359, -16, -16, -14, 50, 50
1486824574.177657, -1002, -255, -13, -91, -353, -14, -17, -7, 50, 50
1486824574.1910121, -1003, -252, -11, -79, -338, -12, -19, -12, 50, 50
1486824574.191953, -995, -248, -13, -79, -337, -11, -11, -14, 50, 50
1486824574.1935346, -997, -250, -12, -85, -350, -13, -18, -17, 50, 50
1486824574.1985087, -1001, -241, -12, -94, -355, -9, -15, -12, 50, 50
1486824574.1991978, -990, -243, -13, -89, -350, -13, -16, -22, 50, 50
1486824574.2001185, -988, -254, -13, -76, -341, -16, -17, -16, 50, 50
1486824574.2023313, -988, -258, -12, -71, -336, -13, -12, -16, 50, 50
1486824574.21352, -992, -253, -13, -84, -355, -14, -21, -19, 50, 50
1486824574.214367, -983, -244, -13, -92, -357, -16, -19, -13, 50, 50
1486824574.2159817, -983, -247, -13, -91, -353, -14, -17, -7, 50, 50
1486824574.2285118, -975, -248, -13, -80, -346, -18, -16, -18, 50, 50
1486824574.2293153, -965, -249, -13, -75, -349, -13, -17, -14, 50, 50
1486824574.2296124, -979, -249, -13, -82, -350, -13, -18, -17, 50, 50
1486824574.236032, -989, -243, -13, -91, -357, -11, -13, -12, 50, 50
1486824574.2370186, -986, -237, -12, -91, -358, -15, -16, -13, 50, 50
1486824574.2385008, -981, -245, -12, -70, -335, -16, -17, -16, 50, 50
1486824574.2510428, -973, -246, -12, -66, -332, -13, -15, -17, 50, 50
1486824574.2519512, -976, -242, -12, -76, -335, -10, -17, -16, 50, 50
1486824574.2549064, -986, -238, -12, -90, -351, -10, -19, -13, 50, 50
1486824574.266093, -975, -237, -13, -85, -350, -13, -19, -17, 50, 50
1486824574.2668717, -974, -247, -12, -72, -345, -21, -14, -13, 50, 50
1486824574.2705266, -963, -249, -13, -64, -340, -13, -19, -18, 50, 50
1486824574.273555, -979, -243, -12, -73, -351, -16, -18, -13, 50, 50
1486824574.2739437, -969, -239, -13, -86, -352, -8, -7, -16, 50, 50
1486824574.274508, -960, -235, -12, -77, -343, -6, -15, -21, 50, 50
1486824574.2885299, -961, -247, -14, -68, -337, -14, -15, -19, 50, 50
1486824574.2889192, -969, -247, -12, -71, -327, -12, -12, -20, 50, 50
1486824574.2895555, -998, -249, -13, -78, -336, -17, -8, -18, 50, 50
1486824574.3035288, -1010, -249, -12, -91, -358, -19, -11, -15, 50, 50
1486824574.3039162, -1005, -249, -12, -79, -332, -11, -13, -16, 50, 50
1486824574.3045325, -1029, -254, -13, -64, -303, -13, -12, -13, 50, 50
1486824574.311044, -1070, -250, -13, -69, -308, -10, -7, -16, 50, 50
1486824574.3114128, -1143, -260, -13, -85, -318, -14, -17, -14, 50, 50
1486824574.3120582, -1184, -260, -12, -93, -317, -11, -12, -17, 50, 50
1486824574.326091, -1225, -255, -13, -82, -293, -10, -7, -5, 50, 50
1486824574.3264852, -1263, -273, -13, -66, -287, -24, -17, -11, 50, 50
1486824574.3270328, -1291, -263, -13, -73, -276, -12, -12, -20, 50, 50
1486824574.3409631, -1345, -270, -13, -81, -275, -10, -6, -7, 50, 50
1486824574.3413558, -1356, -261, -12, -87, -289, -18, -13, -11, 50, 50
1486824574.342086, -1355, -261, -14, -82, -272, -15, -13, -16, 50, 50
1486824574.3485777, -1370, -262, -13, -76, -267, -12, -16, -12, 50, 50
1486824574.3489835, -1370, -251, -12, -76, -274, -21, -13, -5, 50, 50
1486824574.3495386, -1365, -255, -13, -88, -288, -9, -16, -14, 50, 50
1486824574.3633285, -1349, -240, -12, -87, -281, -7, -11, -15, 50, 50
1486824574.363784, -1351, -247, -13, -66, -279, -11, -15, -14, 50, 50
1486824574.3646746, -1318, -247, -13, -53, -271, -13, -9, -6, 50, 50
1486824574.3785617, -1299, -243, -13, -51, -274, -13, -16, -14, 50, 50
1486824574.378951, -1288, -228, -12, -65, -289, -12, -15, -11, 50, 50
1486824574.3795042, -1269, -229, -12, -64, -290, -13, -15, -14, 50, 50
1486824574.3859715, -1261, -239, -12, -43, -280, -19, -15, -8, 50, 50
1486824574.3863754, -1245, -242, -12, -33, -272, -18, -17, -13, 50, 50
1486824574.387058, -1240, -224, -12, -52, -283, -21, -13, -5, 50, 50
1486824574.4010172, -1230, -222, -13, -56, -286, -7, -12, -11, 50, 50
1486824574.4012556, -1235, -227, -12, -56, -286, -10, -14, -11, 50, 50
1486824574.4024131, -1220, -233, -13, -45, -277, -7, -15, -14, 50, 50
1486824574.41603, -1210, -229, -12, -37, -283, -15, -14, -7, 50, 50
1486824574.4162626, -1210, -221, -12, -41, -291, -13, -13, -12, 50, 50
1486824574.4172525, -1212, -223, -12, -47, -299, -11, -10, -11, 50, 50
1486824574.4235525, -1193, -218, -10, -40, -290, -20, -17, -11, 50, 50
1486824574.4239447, -1179, -224, -12, -30, -283, -15, -6, -6, 50, 50
1486824574.4244766, -1178, -219, -12, -30, -290, -17, -14, -12, 50, 50
1486824574.425145, -1240, -224, -12, -52, -283, -10, -12, -14, 50, 50
1486824574.4385414, -1186, -208, -13, -48, -300, -13, -6, -13, 50, 50
1486824574.4388905, -1177, -215, -12, -40, -276, -18, -16, -13, 50, 50
1486824574.439558, -1166, -233, -13, -45, -277, -7, -15, -17, 50, 50
1486824574.453533, -1171, -221, -13, -22, -281, -17, -16, -16, 50, 50
1486824574.4610753, -1177, -216, -12, -30, -294, -10, -13, -16, 50, 50
1486824574.4613004, -1178, -208, -12, -47, -299, -11, -10, -8, 50, 50
1486824574.4619849, -1185, -216, -13, -32, -289, -16, -13, -13, 50, 50
1486824574.4627075, -1180, -221, -13, -29, -284, -20, -18, -13, 50, 50
1486824574.4685967, -1178, -216, -12, -26, -290, -17, -14, -12, 50, 50
1486824574.4760032, -1193, -216, -12, -31, -283, -12, -14, -9, 50, 50
1486824574.476393, -1207, -224, -11, -45, -295, -16, -17, -7, 50, 50
1486824574.4771073, -1207, -222, -13, -39, -276, -18, -16, -13, 50, 50
1486824574.4913216, -1209, -230, -12, -21, -274, -11, -21, -24, 50, 50
1486824574.4917657, -1209, -234, -13, -18, -279, -12, -18, -14, 50, 50
1486824574.4926243, -1218, -233, -12, -35, -286, -10, -13, -16, 50, 50
1486824574.4985986, -1221, -230, -11, -39, -291, -9, -17, -16, 50, 50
1486824574.4990058, -1217, -228, -13, -29, -277, -6, -7, -11, 50, 50
1486824574.4995186, -1209, -241, -12, -14, -272, -11, -18, -13, 50, 50
1486824574.5135853, -1207, -242, -13, -20, -270, -13, -13, -11, 50, 50
1486824574.5139773, -1215, -220, -13, -44, -297, -21, -16, -4, 50, 50
1486824574.5146203, -1200, -219, -12, -47, -293, -19, -14, -14, 50, 50
1486824574.5285747, -1198, -223, -12, -30, -276, -13, -15, -13, 50, 50
1486824574.5289643, -1195, -222, -13, -18, -272, -14, -22, -17, 50, 50
1486824574.5295541, -1202, -223, -13, -22, -277, -16, -10, -7, 50, 50
1486824574.536052, -1199, -224, -13, -38, -286, -13, -20, -13, 50, 50
1486824574.5364132, -1205, -221, -12, -39, -285, -13, -11, -19, 50, 50
1486824574.5370195, -1194, -219, -13, -29, -280, -6, -7, -11, 50, 50
1486824574.5510108, -1192, -225, -12, -19, -262, -10, -14, -11, 50, 50
1486824574.5514061, -1199, -222, -12, -28, -274, -6, -14, -9, 50, 50
1486824574.5520985, -1193, -206, -14, -42, -284, -11, -16, -4, 50, 50
1486824574.5662007, -1184, -210, -12, -46, -279, -10, -17, -16, 50, 50
1486824574.5664787, -1179, -227, -11, -28, -272, -16, -17, -11, 50, 50
1486824574.5671613, -1179, -225, -13, -19, -264, -13, -13, -17, 50, 50
1486824574.5735164, -1190, -220, -12, -21, -279, -15, -12, -12, 50, 50
1486824574.5739074, -1204, -216, -13, -29, -283, -18, -9, -21, 50, 50
1486824574.5748365, -1186, -219, -11, -25, -282, -9, -13, -18, 50, 50
1486824574.5885053, -1167, -216, -11, -20, -273, -19, -9, -13, 50, 50
1486824574.588895, -1175, -217, -13, -20, -281, -15, -15, -14, 50, 50
1486824574.5898325, -1173, -214, -12, -28, -282, -13, -16, -15, 50, 50
1486824574.603443, -1177, -214, -12, -36, -292, -16, -17, -13, 50, 50
1486824574.6038134, -1166, -212, -14, -31, -283, -17, -16, -11, 50, 50
1486824574.6047227, -1163, -220, -13, -13, -270, -15, -19, -19, 50, 50
1486824574.6110058, -1165, -218, -12, -21, -281, -14, -21, -17, 50, 50
1486824574.6112664, -1166, -212, -12, -26, -292, -16, -10, -13, 50, 50
1486824574.6184757, -1162, -207, -11, -38, -299, -18, -9, -21, 50, 50
1486824574.627064, -1149, -215, -13, -31, -297, -16, -8, -23, 50, 50
1486824574.6271296, -1147, -219, -13, -15, -278, -9, -19, -17, 50, 50
1486824574.627458, -1146, -216, -13, -13, -281, -19, -19, -14, 50, 50
1486824574.640936, -1150, -207, -11, -21, -302, -16, -10, -18, 50, 50
1486824574.6413522, -1159, -209, -13, -27, -291, -8, -18, -27, 50, 50
1486824574.6423593, -1153, -214, -11, -17, -285, -13, -19, -19, 50, 50
1486824574.6490405, -1147, -215, -12, -3, -269, -13, -11, -14, 50, 50
1486824574.6491332, -1148, -217, -13, -10, -274, -21, -18, -20, 50, 50
1486824574.6498063, -1162, -211, -11, -11, -282, -16, -20, -13, 50, 50
1486824574.6634772, -1160, -203, -13, -15, -284, -15, -15, -10, 50, 50
1486824574.6638143, -1143, -205, -13, -11, -278, -17, -25, -11, 50, 50
1486824574.6647315, -1140, -213, -12, -2, -262, -12, -13, -13, 50, 50
1486824574.6785288, -1144, -200, -12, -5, -268, -8, -8, -13, 50, 50
1486824574.679085, -1144, -202, -12, -24, -293, -15, -10, -5, 50, 50
1486824574.6796794, -1135, -200, -13, -24, -290, -10, -12, -12, 50, 50
1486824574.6803575, -1135, -214, -11, -17, -285, -13, -19, -19, 50, 50
1486824574.6861165, -1142, -206, -12, 0, -270, -11, -12, -18, 50, 50
1486824574.68654, -1144, -197, -12, -17, -279, -21, -18, -20, 50, 50
1486824574.7013478, -1136, -201, -12, -22, -278, -14, -12, -19, 50, 50
1486824574.7017412, -1128, -201, -13, -11, -264, -13, -17, -15, 50, 50
1486824574.7023726, -1121, -205, -13, -11, -278, -17, -25, -11, 50, 50
1486824574.716068, -1123, -205, -13, 6, -267, -13, -13, -14, 50, 50
1486824574.7162962, -1133, -209, -13, -5, -278, -14, -18, -16, 50, 50
1486824574.717388, -1125, -204, -13, -9, -266, -15, -10, -5, 50, 50
1486824574.7235107, -1117, -205, -13, 4, -261, -21, -12, -16, 50, 50
1486824574.7239022, -1119, -213, -12, 1, -271, -13, -13, -17, 50, 50
1486824574.7248783, -1116, -206, -13, -14, -277, -11, -12, -18, 50, 50
1486824574.7385318, -1116, -193, -12, -26, -287, -13, -11, -13, 50, 50
1486824574.7389224, -1114, -193, -12, -26, -282, -14, -12, -13, 50, 50
1486824574.739815, -1109, -198, -12, -9, -265, -9, -17, -15, 50, 50
1486824574.7534223, -1115, -202, -12, -2, -264, -11, -15, -12, 50, 50
1486824574.7536883, -1105, -195, -13, -16, -278, -11, -11, -18, 50, 50
1486824574.754845, -1103, -191, -13, -18, -281, -16, -12, -17, 50, 50
1486824574.7610736, -1107, -193, -12, -12, -279, -15, -9, -14, 50, 50
1486824574.761465, -1095, -197, -13, 5, -257, -13, -20, -12, 50, 50
1486824574.762312, -1089, -200, -12, 11, -262, -13, -16, -16, 50, 50
1486824574.776006, -1104, -195, -12, 0, -267, -5, -13, -14, 50, 50
1486824574.776432, -1105, -187, -13, -13, -285, -12, -13, -15, 50, 50
1486824574.7772977, -1105, -198, -12, -3, -272, -14, -12, -13, 50, 50
1486824574.790983, -1094, -192, -13, 8, -261, -13, -12, -14, 50, 50
1486824574.7914035, -1093, -192, -13, 6, -271, -16, -16, -16, 50, 50
1486824574.79231, -1101, -188, -13, -10, -281, -21, -14, -18, 50, 50
1486824574.7985704, -1098, -178, -12, -22, -283, -15, -16, -18, 50, 50
1486824574.7989247, -1088, -182, -14, -11, -278, -14, -14, -20, 50, 50
1486824574.7997866, -1099, -191, -12, 8, -262, -14, -11, -18, 50, 50
1486824574.8134665, -1095, -187, -13, 9, -262, -14, -14, -16, 50, 50
1486824574.8138647, -1096, -187, -13, -2, -273, -11, -18, -22, 50, 50
1486824574.8149102, -1095, -185, -12, -8, -272, -15, -10, -15, 50, 50
1486824574.8284013, -1091, -187, -12, 1, -270, -18, -17, -16, 50, 50
1486824574.8291676, -1078, -190, -13, 3, -268, -16, -12, -19, 50, 50
1486824574.829807, -1077, -195, -13, 6, -257, -8, -10, -8, 50, 50
1486824574.8360515, -1083, -184, -12, -12, -278, -10, -12, -12, 50, 50
1486824574.8434558, -1086, -178, -13, -16, -276, -10, -10, -6, 50, 50
1486824574.8441148, -1072, -179, -12, -10, -276, -11, -13, -9, 50, 50
1486824574.850991, -1062, -184, -14, 1, -262, -6, -14, -11, 50, 50
1486824574.8513536, -1074, -179, -13, 1, -271, -9, -18, -11, 50, 50
1486824574.8521223, -1074, -174, -13, -7, -274, -7, -18, -22, 50, 50
1486824574.8660505, -1073, -176, -13, -6, -272, -13, -18, -16, 50, 50
1486824574.8689077, -1059, -181, -13, 6, -262, -17, -15, -12, 50, 50
1486824574.870477, -1063, -182, -12, 11, -264, -17, -12, -22, 50, 50
1486824574.8741531, -1065, -178, -13, 1, -271, -6, -12, -18, 50, 50
1486824574.8761537, -1062, -175, -14, -17, -287, -10, -14, -15, 50, 50
1486824574.877266, -1060, -165, -11, -22, -288, -11, -17, -20, 50, 50
1486824574.8895483, -1049, -177, -13, -9, -270, -17, -11, -17, 1280, 720
1486824574.8910344, -1054, -177, -12, 1, -265, -14, -11, -13, 1280, 720
1486824574.8919685, -1058, -178, -13, -1, -270, -15, -15, -16, 1280, 720
1486824574.9042811, -1052, -176, -13, -13, -284, -11, -11, -15, 1280, 720
1486824574.9058774, -1050, -166, -13, -11, -275, -14, -10, -14, 1280, 720
1486824574.9063182, -1042, -169, -12, 4, -258, -7, -13, -13, 1280, 720
1486824574.9119282, -1049, -175, -12, 5, -252, -11, -13, -18, 1280, 720
1486824574.912507, -1052, -174, -11, -5, -265, -10, -18, -21, 1280, 720
1486824574.9144294, -1048, -167, -11, -18, -279, -9, -12, -20, 1280, 720
1486824574.9145148, -1039, -168, -11, -22, -288, -11, -17, -20, 1280, 720
1486824574.9271207, -1039, -166, -13, -15, -267, -16, -17, -20, 1280, 720
1486824574.9271986, -1028, -167, -12, -10, -256, -11, -13, -10, 1280, 720
1486824574.9279213, -1045, -162, -13, -1, -270, -15, -15, -16, 1280, 720
1486824574.9420521, -1044, -159, -13, -30, -282, -12, -5, -13, 1280, 720
1486824574.9421177, -1039, -157, -14, -20, -280, -14, -14, -20, 1280, 720
1486824574.943799, -1030, -159, -12, 4, -258, -7, -13, -13, 1280, 720
1486824574.94952, -1034, -167, -13, 0, -255, -15, -12, -15, 1280, 720
1486824574.9518535, -1035, -164, -12, -6, -264, -16, -17, -14, 1280, 720
1486824574.9538882, -1040, -159, -12, -13, -279, -9, -12, -20, 1280, 720
1486824574.9643638, -1029, -166, -14, -9, -256, -16, -16, -14, 1280, 720
1486824574.9644396, -1023, -168, -12, 4, -248, -14, -9, -11, 1280, 720
1486824574.9661453, -1031, -168, -12, 5, -262, -11, -13, -10, 1280, 720
1486824574.9794912, -1037, -166, -12, -7, -270, -11, -6, -6, 1280, 720
1486824574.9805305, -1037, -160, -12, -15, -276, -12, -18, -17, 1280, 720
1486824574.9869123, -1026, -167, -12, -1, -261, -12, -14, -20, 1280, 720
1486824574.986984, -1033, -176, -14, 4, -265, -20, -19, -23, 1280, 720
1486824574.9907572, -1024, -163, -12, -1, -261, -18, -9, -9, 1280, 720
1486824574.9908273, -1033, -150, -12, -16, -280, -10, -7, -14, 1280, 720
1486824575.0018516, -1028, -143, -12, -26, -278, -11, -9, -11, 1280, 720
1486824575.0021293, -1021, -148, -13, -11, -266, -11, -12, -12, 1280, 720
1486824575.004004, -1029, -160, -13, 7, -251, -17, -8, -14, 1280, 720
1486824575.0162323, -1022, -151, -13, 0, -258, -19, -17, -17, 1280, 720
1486824575.017225, -1023, -147, -12, -16, -273, -11, -13, -17, 1280, 720
1486824575.0176306, -1020, -146, -13, -29, -274, -11, -18, -17, 1280, 720
1486824575.0234613, -1013, -147, -13, -22, -268, -10, -16, -18, 1280, 720
1486824575.0238223, -1010, -153, -13, -10, -255, -10, -24, -21, 1280, 720
1486824575.0250578, -1015, -144, -13, -13, -271, -20, -22, -9, 1280, 720
1486824575.0385578, -1019, -138, -14, -23, -271, -16, -15, -15, 1280, 720
1486824575.0387943, -1020, -137, -12, -23, -276, -11, -14, -17, 1280, 720
1486824575.039938, -1007, -140, -13, -5, -249, -4, -12, -13, 1280, 720
1486824575.0534892, -1016, -149, -12, 1, -245, -9, -12, -10, 1280, 720
1486824575.0538957, -1017, -144, -11, -5, -247, -8, -12, -11, 1280, 720
1486824575.0548196, -1020, -140, -12, -17, -261, -15, -11, -12, 1280, 720
1486824575.0609915, -1014, -137, -14, -21, -268, -14, -11, -23, 1280, 720
1486824575.061337, -1003, -142, -13, -8, -256, -16, -13, -9, 1280, 720
1486824575.0622132, -1011, -143, -13, -3, -247, -19, -17, -10, 1280, 720
1486824575.0762465, -1006, -140, -12, -12, -258, -15, -19, -21, 1280, 720
1486824575.0766973, -1007, -135, -12, -23, -274, -23, -17, -21, 1280, 720
1486824575.0771432, -999, -138, -13, -29, -267, -11, -14, -17, 1280, 720
1486824575.0910861, -1002, -141, -12, -19, -265, -9, -10, -15, 1280, 720
1486824575.0913298, -994, -156, -14, 11, -251, -10, -7, -10, 1280, 720
1486824575.0924442, -1015, -168, -13, 22, -241, -13, -12, -11, 1280, 720
1486824575.098553, -1004, -176, -13, 15, -240, -11, -12, -17, 1280, 720
1486824575.0989313, -974, -179, -13, 18, -234, -11, -19, -15, 1280, 720
1486824575.0998945, -976, -205, -13, 53, -208, -13, -16, -9, 1280, 720
1486824575.1135163, -972, -232, -12, 66, -194, -10, -12, -10, 1280, 720
1486824575.1139073, -984, -242, -13, 59, -199, -13, -13, -13, 1280, 720
1486824575.1148956, -980, -255, -12, 66, -193, -9, -16, -7, 1280, 720
1486824575.1284714, -973, -277, -13, 87, -183, -6, -14, -11, 1280, 720
1486824575.128706, -971, -312, -12, 109, -166, -14, -20, -12, 1280, 720
1486824575.1295562, -963, -319, -13, 121, -175, -13, -16, -13, 1280, 720
1486824575.1304953, -969, -168, -13, 22, -241, -13, -9, -10, 1280, 720
1486824575.1361942, -964, -339, -13, 118, -174, -11, -9, -13, 1280, 720
1486824575.1365983, -949, -352, -11, 134, -169, -16, -15, -13, 1280, 720
1486824575.1527011, -955, -357, -12, 146, -154, -19, -19, -7, 1280, 720
1486824575.1527739, -952, -361, -12, 144, -165, -14, -19, -10, 1280, 720
1486824575.1535418, -943, -350, -13, 127, -186, -15, -20, -14, 1280, 720
1486824575.1660693, -943, -350, -13, 129, -194, -24, -25, -22, 1280, 720
1486824575.166788, -932, -357, -13, 139, -176, -18, -22, -15, 1280, 720
1486824575.1676676, -930, -358, -12, 146, -168, -10, -18, -16, 1280, 720
1486824575.1713774, -938, -359, -13, 121, -175, -13, -16, -13, 1280, 720
1486824575.1735513, -940, -352, -13, 125, -189, -14, -13, -14, 1280, 720
1486824575.1740806, -934, -344, -13, 116, -194, -8, -12, -17, 1280, 720
1486824575.176813, -928, -352, -11, 134, -169, -16, -15, -13, 1280, 720
1486824575.1885803, -931, -359, -12, 144, -169, -11, -16, -19, 1280, 720
1486824575.1890604, -930, -351, -13, 136, -169, -4, -12, -13, 1280, 720
1486824575.1918633, -936, -344, -13, 116, -193, -15, -20, -14, 1280, 720
1486824575.20358, -927, -340, -13, 116, -196, -12, -13, -15, 1280, 720
1486824575.204521, -922, -348, -13, 126, -179, -6, -7, -15, 1280, 720
1486824575.2061265, -922, -342, -13, 130, -175, -14, -18, -16, 1280, 720
1486824575.2110832, -927, -345, -13, 125, -185, -12, -13, -10, 1280, 720
1486824575.2119927, -927, -338, -12, 114, -190, -13, -12, -14, 1280, 720
1486824575.2137234, -924, -333, -13, 106, -197, -8, -14, -20, 1280, 720
1486824575.2260902, -925, -341, -13, 117, -177, -11, -19, -14, 1280, 720
1486824575.2269137, -924, -336, -14, 123, -177, -11, -5, -10, 1280, 720
1486824575.227885, -928, -331, -13, 118, -178, -8, -7, -15, 1280, 720
1486824575.2420712, -930, -327, -13, 108, -196, -13, -10, -16, 1280, 720
1486824575.2427366, -915, -321, -12, 101, -191, -14, -10, -17, 1280, 720
1486824575.2428086, -914, -333, -14, 122, -171, -6, -7, -15, 1280, 720
1486824575.2487576, -918, -348, -12, 138, -173, -18, -12, -16, 1280, 720
1486824575.2493432, -909, -349, -13, 134, -182, -13, -13, -21, 1280, 720
1486824575.2504396, -921, -339, -13, 124, -190, -8, -12, -14, 1280, 720
1486824575.2635732, -918, -343, -13, 130, -176, -18, -16, -17, 1280, 720
1486824575.2645674, -912, -350, -13, 147, -167, -7, -12, -13, 1280, 720
1486824575.265719, -908, -351, -13, 145, -165, -10, -14, -10, 1280, 720
1486824575.27866, -918, -344, -12, 135, -173, -13, -13, -10, 1280, 720
1486824575.2795599, -911, -339, -13, 122, -187, -10, -12, -16, 1280, 720
1486824575.28116, -906, -343, -12, 125, -181, -11, -5, -8, 1280, 720
1486824575.2865193, -896, -347, -11, 145, -164, -15, -21, -11, 1280, 720
1486824575.2938435, -893, -349, -12, 149, -163, -7, -16, -10, 1280, 720
1486824575.294373, -897, -339, -12, 133, -185, -13, -13, -21, 1280, 720
1486824575.3010674, -885, -330, -12, 126, -182, -7, -15, -13, 1280, 720
1486824575.3020601, -888, -329, -13, 127, -187, -9, -11, -12, 1280, 720
1486824575.3036067, -886, -335, -13, 138, -174, -13, -12, -13, 1280, 720
1486824575.3162649, -880, -332, -12, 132, -184, -13, -13, -13, 1280, 720
1486824575.3170176, -890, -326, -12, 119, -192, -16, -14, -15, 1280, 720
1486824575.3183937, -890, -328, -12, 121, -192, -18, -12, -16, 1280, 720
1486824575.3234785, -888, -331, -12, 125, -188, -17, -19, -18, 1280, 720
1486824575.3241947, -874, -332, -13, 144, -178, -18, -17, -15, 1280, 720
1486824575.3253684, -884, -333, -12, 148, -184, -8, -16, -10, 1280, 720
1486824575.3385973, -885, -325, -12, 130, -190, -10, -14, -19, 1280, 720
1486824575.3393838, -887, -318, -12, 124, -192, -11, -10, -16, 1280, 720
1486824575.3434508, -877, -326, -12, 137, -174, -10, -10, -19, 1280, 720
1486824575.3536758, -874, -329, -12, 144, -178, -14, -14, -14, 1280, 720
1486824575.3544993, -870, -325, -13, 140, -178, -17, -11, -13, 1280, 720
1486824575.3554056, -877, -323, -12, 122, -194, -7, -10, -17, 1280, 720
1486824575.3611, -871, -316, -13, 112, -192, -15, -14, -10, 1280, 720
1486824575.361687, -855, -318, -13, 118, -183, -17, -16, -12, 1280, 720
1486824575.362123, -863, -319, -13, 126, -176, -15, -18, -14, 1280, 720
1486824575.36854, -884, -333, -12, 148, -184, -8, -9, -11, 1280, 720
1486824575.3761194, -853, -301, -12, 94, -206, -12, -16, -13, 1280, 720
1486824575.3770251, -848, -307, -13, 101, -190, -17, -19, -7, 1280, 720
1486824575.3783345, -849, -326, -12, 137, -174, -10, -10, -19, 1280, 720
1486824575.391145, -851, -313, -12, 122, -183, -14, -19, -14, 1280, 720
1486824575.3919432, -846, -306, -13, 113, -200, -15, -17, -12, 1280, 720
1486824575.3925905, -858, -308, -12, 122, -194, -7, -10, -17, 1280, 720
1486824575.3985991, -853, -304, -13, 94, -203, -18, -16, -10, 1280, 720
1486824575.3995223, -843, -304, -12, 108, -192, -17, -11, -10, 1280, 720
1486824575.4025815, -849, -307, -12, 117, -176, -15, -18, -14, 1280, 720
1486824575.4135966, -854, -301, -13, 110, -193, -13, -15, -8, 1280, 720
1486824575.414567, -847, -295, -11, 104, -202, -8, -12, -9, 1280, 720
1486824575.4149435, -847, -298, -12, 101, -190, -17, -19, -7, 1280, 720
1486824575.428586, -839, -300, -12, 114, -188, -14, -12, -11, 1280, 720
1486824575.4295716, -833, -309, -11, 126, -173, -13, -22, -12, 1280, 720
1486824575.4305596, -840, -304, -11, 119, -194, -15, -17, -12, 1280, 720
1486824575.436167, -852, -297, -12, 114, -192, -16, -15, -14, 1280, 720
1486824575.4370077, -858, -305, -12, 120, -185, -14, -15, -15, 1280, 720
1486824575.439196, -837, -300, -12, 137, -173, -17, -11, -10, 1280, 720
1486824575.451088, -840, -308, -13, 143, -177, -20, -14, -21, 1280, 720
1486824575.4519706, -853, -299, -12, 136, -183, -16, -17, -14, 1280, 720
1486824575.454716, -846, -297, -13, 127, -188, -8, -15, -9, 1280, 720
1486824575.4670687, -836, -296, -12, 125, -187, -12, -13, -14, 1280, 720
1486824575.4671404, -830, -301, -11, 135, -181, -6, -4, -10, 1280, 720
1486824575.4682167, -830, -300, -13, 126, -179, -16, -10, -11, 1280, 720
1486824575.4736466, -827, -288, -12, 119, -191, -16, -12, -19, 1280, 720
1486824575.474436, -830, -282, -12, 109, -194, -13, -14, -19, 1280, 720
1486824575.4755158, -826, -285, -12, 120, -193, -17, -15, -17, 1280, 720
1486824575.4885585, -832, -293, -13, 130, -179, -16, -16, -18, 1280, 720
1486824575.4895341, -827, -290, -12, 130, -185, -7, -15, -21, 1280, 720
1486824575.490056, -824, -286, -12, 115, -188, -7, -14, -22, 1280, 720
1486824575.5036767, -830, -282, -12, 104, -197, -8, -17, -14, 1280, 720
1486824575.5045428, -815, -278, -12, 108, -192, -8, -12, -18, 1280, 720
1486824575.5061474, -820, -285, -12, 114, -183, -11, -10, -13, 1280, 720
1486824575.5111215, -825, -283, -12, 114, -187, -8, -15, -16, 1280, 720
1486824575.5119634, -830, -280, -12, 99, -202, -14, -15, -20, 1280, 720
1486824575.5122309, -824, -279, -13, 99, -196, -13, -14, -19, 1280, 720
1486824575.5260847, -811, -276, -11, 109, -188, -9, -13, -16, 1280, 720
1486824575.526515, -812, -280, -11, 121, -180, -8, -9, -13, 1280, 720
1486824575.5303025, -819, -276, -12, 116, -186, -10, -11, -11, 1280, 720
1486824575.5410726, -826, -273, -14, 101, -196, -11, -20, -22, 1280, 720
1486824575.541463, -816, -272, -12, 100, -189, -13, -9, -9, 1280, 720
1486824575.5424333, -809, -275, -12, 112, -177, -17, -17, -19, 1280, 720
1486824575.5485518, -814, -280, -13, 121, -176, -17, -17, -19, 1280, 720
1486824575.548922, -817, -271, -11, 115, -185, -15, -16, -20, 1280, 720
1486824575.549908, -821, -267, -11, 97, -196, -13, -7, -11, 1280, 720
1486824575.5634613, -815, -266, -11, 95, -194, -15, -17, -17, 1280, 720
1486824575.563831, -814, -278, -12, 103, -182, -8, -15, -17, 1280, 720
1486824575.564825, -809, -274, -12, 111, -176, -10, -17, -20, 1280, 720
1486824575.5785098, -818, -269, -12, 104, -187, -20, -13, -6, 1280, 720
1486824575.5788996, -819, -263, -12, 96, -202, -11, -12, -9, 1280, 720
1486824575.579923, -815, -266, -11, 100, -194, -10, -18, -9, 1280, 720
1486824575.586127, -809, -268, -11, 111, -183, -14, -15, -18, 1280, 720
1486824575.5863545, -804, -273, -12, 122, -172, -14, -16, -8, 1280, 720
1486824575.5874386, -825, -273, -12, 117, -189, -13, -16, -20, 1280, 720
1486824575.6011047, -820, -264, -13, 110, -187, -12, -14, -9, 1280, 720
1486824575.6014962, -819, -266, -13, 106, -189, -19, -15, -11, 1280, 720
1486824575.6024103, -804, -269, -12, 116, -186, -14, -10, -11, 1280, 720
1486824575.6160238, -807, -271, -12, 119, -189, -17, -11, -14, 1280, 720
1486824575.6163807, -808, -259, -13, 105, -201, -18, -13, -17, 1280, 720
1486824575.6172059, -812, -260, -12, 95, -202, -12, -18, -15, 1280, 720
1486824575.6235268, -801, -261, -13, 92, -201, -12, -11, -8, 1280, 720
1486824575.6239047, -794, -263, -13, 106, -182, -5, -10, -9, 1280, 720
1486824575.6247485, -793, -265, -12, 110, -197, -18, -17, -22, 1280, 720
1486824575.6253555, -792, -257, -12, 117, -189, -13, -12, -17, 1280, 720
1486824575.6385176, -800, -256, -11, 96, -202, -23, -19, -14, 1280, 720
1486824575.6389189, -781, -261, -13, 97, -188, -16, -21, -15, 1280, 720
1486824575.6399217, -783, -258, -12, 116, -186, -14, -10, -11, 1280, 720
1486824575.6536012, -788, -256, -13, 113, -183, -14, -22, -19, 1280, 720
1486824575.6539922, -795, -250, -13, 100, -205, -13, -17, -14, 1280, 720
1486824575.6551883, -792, -247, -13, 95, -202, -12, -18, -15, 1280, 720
1486824575.6610734, -784, -235, -13, 85, -199, -15, -17, -12, 1280, 720
1486824575.6614444, -783, -239, -12, 105, -182, -17, -23, -16, 1280, 720
1486824575.662433, -787, -234, -13, 95, -195, -18, -17, -22, 1280, 720
1486824575.676091, -799, -229, -13, 82, -202, -10, -14, -11, 1280, 720
1486824575.67647, -787, -233, -14, 75, -196, -7, -14, -15, 1280, 720
1486824575.6772022, -782, -236, -12, 86, -195, -16, -21, -15, 1280, 720
1486824575.691055, -785, -242, -12, 100, -178, -12, -11, -17, 1280, 720
1486824575.6914253, -787, -243, -12, 101, -183, -9, -12, -15, 1280, 720
1486824575.692429, -784, -243, -13, 84, -190, -11, -17, -14, 1280, 720
1486824575.698623, -779, -235, -13, 81, -198, -10, -17, -17, 1280, 720
1486824575.6989353, -771, -243, -12, 87, -184, -12, -14, -12, 1280, 720
1486824575.6999247, -772, -247, -12, 98, -188, -14, -19, -16, 1280, 720
1486824575.7134886, -783, -241, -13, 92, -186, -13, -15, -16, 1280, 720
1486824575.7138946, -785, -241, -12, 77, -198, -11, -19, -19, 1280, 720
1486824575.71471, -781, -235, -12, 75, -196, -8, -11, -9, 1280, 720
1486824575.7285094, -769, -241, -12, 91, -183, -11, -9, -12, 1280, 720
1486824575.7288284, -779, -252, -13, 108, -169, -10, -12, -11, 1280, 720
1486824575.7296338, -774, -241, -12, 99, -178, -10, -12, -9, 1280, 720
1486824575.7361143, -775, -237, -12, 90, -184, -7, -14, -11, 1280, 720
1486824575.7365024, -775, -237, -12, 92, -187, -10, -17, -9, 1280, 720
1486824575.7371187, -764, -238, -13, 107, -188, -11, -18, -19, 1280, 720
1486824575.7510328, -774, -245, -12, 113, -182, -15, -21, -9, 1280, 720
1486824575.7514045, -775, -237, -13, 105, -186, -7, -16, -12, 1280, 720
1486824575.7524235, -772, -238, -12, 95, -200, -12, -19, -19, 1280, 720
1486824575.7659955, -769, -235, -11, 102, -187, -14, -12, -9, 2510, 50
1486824575.7662616, -766, -239, -12, 116, -183, -17, -16, -8, 2510, 50
1486824575.767566, -763, -242, -13, 116, -175, -9, -12, -11, 2510, 50
1486824575.7736058, -768, -230, -12, 109, -185, -8, -10, -9, 2510, 50
1486824575.773997, -771, -228, -12, 101, -189, -10, -13, -12, 2510, 50
1486824575.774832, -764, -229, -13, 104, -191, -12, -15, -9, 2510, 50
1486824575.7886708, -766, -231, -13, 112, -179, -16, -14, -10, 2510, 50
1486824575.7891777, -761, -234, -13, 118, -181, -15, -11, -14, 2510, 50
1486824575.7898579, -763, -225, -12, 105, -190, -7, -16, -12, 2510, 50
1486824575.8035703, -761, -220, -12, 96, -192, -8, -16, -12, 2510, 50
1486824575.8039415, -751, -221, -13, 98, -195, -9, -8, -4, 2510, 50
1486824575.8049266, -754, -228, -13, 110, -183, -14, -16, -8, 2510, 50
1486824575.8110678, -751, -228, -12, 107, -194, -10, -14, -10, 2510, 50
1486824575.8114574, -751, -224, -13, 92, -205, -14, -17, -6, 2510, 50
1486824575.8123085, -749, -218, -13, 88, -206, -17, -21, -12, 2510, 50
1486824575.8260734, -751, -220, -13, 90, -190, -13, -20, -18, 2510, 50
1486824575.8264709, -736, -220, -12, 102, -190, -13, -21, -14, 2510, 50
1486824575.827558, -736, -215, -12, 100, -189, -12, -10, -5, 2510, 50
1486824575.8410044, -747, -216, -13, 91, -199, -15, -14, -13, 2510, 50
1486824575.8413978, -749, -214, -11, 81, -204, -15, -18, -8, 2510, 50
1486824575.8421793, -737, -207, -13, 87, -196, -9, -12, -15, 2510, 50
1486824575.848586, -731, -209, -13, 96, -186, -13, -13, -15, 2510, 50
1486824575.8489823, -729, -211, -13, 95, -190, -4, -15, -15, 2510, 50
1486824575.849907, -732, -205, -13, 81, -204, -12, -12, -10, 2510, 50
1486824575.8635986, -736, -203, -12, 73, -197, -8, -13, -5, 2510, 50
1486824575.8639758, -729, -209, -12, 84, -192, -4, -15, -17, 2510, 50
1486824575.8649843, -720, -215, -13, 102, -181, -12, -15, -9, 2510, 50
1486824575.865403, -728, -215, -12, 100, -189, -12, -10, -5, 2510, 50
1486824575.8786268, -736, -202, -12, 80, -211, -5, -12, -4, 2510, 50
1486824575.8790243, -736, -196, -12, 78, -212, -11, -20, -20, 2510, 50
1486824575.879891, -722, -200, -13, 87, -196, -9, -12, -15, 2510, 50
1486824575.886121, -724, -203, -13, 100, -184, -10, -17, -8, 2510, 50
1486824575.8867652, -730, -198, -12, 94, -195, -10, -16, -14, 2510, 50
1486824575.887504, -733, -190, -12, 80, -204, -12, -12, -10, 2510, 50
1486824575.9011822, -735, -193, -12, 80, -205, -10, -12, -21, 2510, 50
1486824575.902291, -732, -206, -12, 95, -189, -13, -17, -18, 2510, 50
1486824575.904371, -731, -207, -13, 103, -186, -12, -15, -9, 2510, 50
1486824575.917018, -731, -202, -12, 97, -195, -10, -14, -15, 2510, 50
1486824575.9183462, -729, -201, -13, 87, -199, -8, -14, -15, 2510, 50
1486824575.9199274, -720, -200, -13, 84, -193, -7, -20, -20, 2510, 50
1486824575.9245605, -720, -198, -12, 97, -190, -12, -22, -20, 2510, 50
1486824575.9248166, -709, -196, -12, 100, -178, -8, -16, -22, 2510, 50
1486824575.9277337, -717, -195, -12, 91, -194, -7, -16, -14, 2510, 50
1486824575.939595, -719, -188, -12, 82, -193, -7, -14, -14, 2510, 50
1486824575.9408185, -709, -192, -12, 83, -201, -14, -13, -13, 2510, 50
1486824575.9430048, -698, -198, -13, 90, -186, -15, -11, -18, 2510, 50
1486824575.956514, -694, -196, -11, 98, -183, -11, -14, -19, 2510, 50
1486824575.9565854, -699, -192, -12, 89, -192, -9, -13, -18, 2510, 50
1486824575.9615178, -705, -186, -13, 77, -209, -8, -10, -16, 2510, 50
1486824575.9619527, -702, -183, -12, 77, -204, -11, -11, -13, 2510, 50
1486824575.9624836, -689, -188, -13, 77, -197, -11, -9, -23, 2510, 50
1486824575.9637537, -720, -205, -13, 78, -208, -15, -16, -18, 2510, 50
1486824575.9770515, -741, -227, -13, 94, -213, -17, -12, -18, 2510, 50
1486824575.9788656, -739, -224, -13, 94, -197, -15, -21, -22, 2510, 50
1486824575.979143, -747, -235, -12, 112, -169, -14, -13, -13, 2510, 50
1486824575.9929569, -782, -259, -12, 137, -158, -23, -18, -19, 2510, 50
1486824575.9930272, -803, -278, -13, 151, -151, -11, -12, -20, 2510, 50
1486824575.9944053, -843, -298, -13, 150, -154, -9, -11, -18, 2510, 50
1486824575.9995952, -873, -309, -13, 160, -135, -12, -19, -17, 2510, 50
1486824576.0001457, -917, -337, -13, 179, -125, -21, -17, -20, 2510, 50
1486824576.0012195, -920, -360, -13, 208, -106, -8, -8, -23, 2510, 50
1486824576.0144918, -960, -384, -13, 221, -106, -16, -13, -19, 2510, 50
1486824576.0162582, -966, -384, -13, 219, -119, -14, -13, -7, 2510, 50
1486824576.0175226, -995, -404, -13, 229, -96, -9, -16, -12, 2510, 50
1486824576.0290725, -1000, -420, -13, 246, -86, -13, -18, -8, 2510, 50
1486824576.029803, -1025, -444, -13, 260, -81, -11, -18, -18, 2510, 50
1486824576.0300806, -1010, -438, -13, 258, -85, -13, -14, -18, 2510, 50
1486824576.0372176, -1015, -433, -13, 237, -110, -17, -11, -11, 2510, 50
1486824576.0381632, -1003, -432, -13, 229, -106, -20, -16, -8, 2510, 50
1486824576.0382457, -991, -438, -12, 234, -101, -19, -19, -10, 2510, 50
1486824576.0522008, -977, -440, -13, 241, -94, -18, -16, -11, 2510, 50
1486824576.0543506, -981, -439, -12, 240, -112, -13, -4, -17, 2510, 50
1486824576.0544343, -971, -428, -12, 221, -128, -7, -11, -7, 2510, 50
1486824576.0662482, -964, -435, -13, 212, -121, -13, -18, -18, 2510, 50
1486824576.0663252, -953, -437, -12, 225, -111, -14, -14, -15, 2510, 50
1486824576.0678027, -960, -441, -12, 233, -114, -17, -17, -8, 2510, 50
1486824576.0746975, -953, -438, -12, 213, -125, -8, -19, -15, 2510, 50
1486824576.0747695, -942, -426, -12, 195, -131, -12, -16, -15, 2510, 50
1486824576.0765736, -942, -428, -13, 201, -136, -14, -14, -10, 2510, 50
1486824576.08864, -932, -434, -13, 216, -112, -12, -16, -14, 2510, 50
1486824576.0895991, -934, -433, -14, 217, -119, -12, -20, -17, 2510, 50
1486824576.09063, -931, -427, -12, 214, -128, -14, -19, -9, 2510, 50
1486824576.0923207, -971, -428, -12, 221, -128, -7, -11, -12, 2510, 50
1486824576.1036642, -930, -427, -13, 196, -140, -13, -18, -9, 2510, 50
1486824576.1046758, -915, -426, -13, 205, -132, -15, -20, -7, 2510, 50
1486824576.1053693, -960, -441, -12, 233, -114, -17, -17, -8, 2510, 50
1486824576.1111727, -924, -422, -11, 193, -144, -5, -4, -6, 2510, 50
1486824576.1114223, -910, -405, -14, 184, -152, -11, -10, -10, 2510, 50
1486824576.1129432, -912, -420, -13, 201, -136, -14, -14, -10, 2510, 50
1486824576.1261528, -924, -439, -13, 196, -132, -19, -15, -14, 2510, 50
1486824576.127253, -912, -431, -12, 201, -134, -15, -15, -9, 2510, 50
1486824576.1279407, -914, -421, -13, 214, -128, -14, -19, -9, 2510, 50
1486824576.1411715, -920, -415, -13, 178, -153, -17, -11, -7, 2510, 50
1486824576.1419241, -915, -422, -13, 192, -145, -7, -13, 0, 2510, 50
1486824576.1436274, -922, -432, -12, 208, -132, -15, -20, -7, 2510, 50
1486824576.1485872, -931, -433, -12, 200, -129, -10, -17, -16, 2510, 50
1486824576.149684, -936, -418, -13, 187, -156, -21, -19, -20, 2510, 50
1486824576.1502469, -921, -411, -13, 181, -152, -11, -10, -10, 2510, 50
1486824576.1713428, -925, -426, -12, 187, -141, -18, -16, -11, 2510, 50
1486824576.1721854, -916, -426, -11, 198, -124, -9, -6, -11, 2510, 50
1486824576.1735823, -911, -425, -13, 193, -148, -19, -15, -9, 2510, 50
1486824576.174614, -917, -419, -13, 176, -153, -12, -12, -9, 2510, 50
1486824576.1789963, -910, -416, -12, 169, -159, -11, -11, -12, 2510, 50
1486824576.1804426, -899, -415, -12, 179, -151, -16, -14, 0, 2510, 50
1486824576.1863394, -890, -419, -13, 192, -151, -23, -17, -10, 2510, 50
1486824576.1870995, -893, -416, -13, 197, -141, -17, -17, -13, 2510, 50
1486824576.1911366, -894, -415, -13, 180, -156, -14, -14, -15, 2510, 50
1486824576.2011728, -893, -412, -12, 173, -156, -24, -17, -10, 2510, 50
1486824576.2022152, -889, -414, -12, 183, -143, -20, -19, -12, 2510, 50
1486824576.2058566, -887, -419, -12, 206, -134, -21, -10, -3, 2510, 50
1486824576.2161043, -894, -418, -11, 197, -135, -24, -16, -5, 2510, 50
1486824576.2172656, -901, -412, -13, 181, -143, -14, -15, -11, 2510, 50
1486824576.2188659, -886, -405, -12, 173, -152, -13, -5, -12, 2510, 50
1486824576.223945, -884, -403, -12, 175, -144, -13, -9, -7, 2510, 50
1486824576.2244062, -881, -403, -12, 183, -138, -20, -20, -8, 2510, 50
1486824576.226267, -876, -402, -12, 178, -160, -14, -12, -13, 2510, 50
1486824576.238666, -884, -399, -12, 160, -159, -14, -12, -13, 2510, 50
1486824576.2396603, -885, -399, -12, 160, -160, -14, -13, -10, 2510, 50
1486824576.24155, -876, -404, -12, 177, -138, -15, -19, -12, 2510, 50
1486824576.2536979, -880, -410, -12, 184, -142, -15, -10, -10, 2510, 50
1486824576.2546594, -875, -393, -12, 176, -146, -10, -7, -13, 2510, 50
1486824576.2558258, -877, -390, -13, 165, -152, -14, -6, -11, 2510, 50
1486824576.2612002, -876, -381, -12, 162, -159, -16, -20, -20, 2510, 50
1486824576.2621987, -868, -384, -12, 167, -145, -18, -14, -10, 2510, 50
1486824576.2653394, -861, -389, -12, 179, -142, -8, -13, -14, 2510, 50
1486824576.2761433, -863, -393, -12, 177, -151, -13, -9, -11, 2510, 50
1486824576.277109, -868, -385, -12, 164, -168, -15, -17, -15, 2510, 50
1486824576.278462, -867, -387, -12, 169, -147, -14, -13, -10, 2510, 50
1486824576.2916062, -859, -386, -13, 183, -141, -17, -16, -19, 2510, 50
1486824576.2994843, -865, -387, -12, 188, -149, -17, -18, -18, 2510, 50
1486824576.3002412, -858, -381, -13, 172, -153, -17, -7, -13, 2510, 50
1486824576.3003144, -848, -375, -11, 160, -160, -19, -12, -9, 2510, 50
1486824576.3020613, -850, -384, -13, 156, -156, -14, -17, -15, 2510, 50
1486824576.3071113, -847, -380, -12, 171, -143, -10, -10, -20, 2510, 50
1486824576.3136213, -846, -380, -12, 174, -149, -14, -22, -19, 2510, 50
1486824576.3143919, -855, -381, -12, 160, -157, -11, -17, -22, 2510, 50
1486824576.315306, -849, -375, -13, 156, -162, -12, -16, -11, 2510, 50
1486824576.3179677, -845, -387, -12, 169, -147, -19, -16, -13, 2510, 50
1486824576.3286192, -845, -380, -12, 185, -144, -18, -16, -13, 2510, 50
1486824576.3296204, -845, -378, -12, 186, -143, -10, -11, -9, 2510, 50
1486824576.3317525, -849, -370, -13, 172, -153, -17, -20, -6, 2510, 50
1486824576.3362074, -844, -364, -13, 164, -155, -6, -13, -9, 2510, 50
1486824576.3370512, -836, -364, -11, 165, -148, -11, -16, -8, 2510, 50
1486824576.351214, -822, -369, -12, 171, -138, -17, -22, -14, 2510, 50
1486824576.3517401, -832, -369, -12, 165, -155, -15, -6, -2, 2510, 50
1486824576.3526974, -833, -362, -13, 156, -166, -14, -19, -11, 2510, 50
1486824576.3553472, -836, -356, -13, 156, -162, -12, -16, -11, 2510, 50
1486824576.3661735, -829, -360, -12, 159, -159, -15, -18, -14, 2510, 50
1486824576.3672674, -821, -362, -12, 170, -151, -17, -14, -15, 2510, 50
1486824576.3711636, -829, -364, -12, 186, -143, -10, -11, -9, 2510, 50
1486824576.3737364, -833, -355, -12, 150, -159, -10, -20, -8, 2510, 50
1486824576.3739855, -828, -347, -13, 141, -169, -12, -17, -8, 2510, 50
1486824576.375101, -823, -357, -12, 159, -148, -11, -16, -8, 2510, 50
1486824576.3891115, -828, -362, -12, 166, -151, -20, -23, -17, 2510, 50
1486824576.3962524, -819, -352, -12, 158, -150, -16, -14, -13, 2510, 50
1486824576.3987043, -828, -348, -12, 138, -166, -14, -19, -11, 2510, 50
1486824576.4035563, -827, -351, -12, 147, -162, -16, -13, -15, 2510, 50
1486824576.4045444, -821, -353, -12, 158, -158, -17, -25, -23, 2510, 50
1486824576.4061382, -808, -354, -13, 160, -152, -17, -14, -15, 2510, 50
1486824576.4111419, -813, -350, -13, 154, -161, -11, -23, -13, 2510, 50
1486824576.4121108, -823, -343, -12, 145, -158, -9, -14, -12, 2510, 50
1486824576.4144893, -809, -342, -14, 144, -167, -16, -17, -8, 2510, 50
1486824576.4344954, -801, -346, -12, 154, -157, -18, -12, -15, 2510, 50
1486824576.4350617, -793, -347, -13, 164, -156, -11, -12, -21, 2510, 50
1486824576.4351149, -794, -338, -12, 151, -163, -20, -14, -13, 2510, 50
1486824576.438103, -798, -335, -14, 140, -169, -16, -15, -22, 2510, 50
1486824576.441225, -796, -328, -12, 142, -168, -11, -14, -18, 2510, 50
1486824576.4453757, -795, -333, -12, 159, -153, -12, -13, -23, 2510, 50
1486824576.4496324, -790, -330, -11, 160, -156, -11, -10, -9, 2510, 50
1486824576.4514036, -793, -327, -12, 147, -165, -20, -13, -11, 2510, 50
1486824576.4514759, -793, -328, -13, 134, -181, -18, -21, -13, 2510, 50
1486824576.4636407, -792, -327, -13, 151, -162, -13, -15, -12, 2510, 50
1486824576.464629, -781, -331, -12, 169, -154, -9, -12, -15, 2510, 50
1486824576.4648957, -776, -333, -13, 170, -156, -11, -12, -21, 2510, 50
1486824576.4789972, -782, -324, -12, 160, -154, -9, -8, -10, 2510, 50
1486824576.479067, -786, -319, -13, 149, -162, -16, -11, -15, 2510, 50
1486824576.4839437, -779, -321, -13, 150, -154, -11, -14, -18, 2510, 50
1486824576.4861078, -773, -329, -14, 158, -140, -12, -16, -10, 2510, 50
1486824576.487187, -778, -321, -13, 158, -153, -15, -15, -11, 2510, 50
1486824576.48929, -780, -315, -12, 148, -157, -13, -13, -11, 2510, 50
1486824576.5012846, -770, -316, -12, 138, -169, -20, -19, -20, 2510, 50
1486824576.5021942, -776, -315, -12, 140, -162, -6, -14, -18, 2510, 50
1486824576.5060234, -781, -318, -12, 157, -141, -10, -17, -11, 2510, 50
1486824576.515843, -781, -316, -13, 158, -140, -7, -18, -12, 2510, 50
1486824576.5171971, -789, -306, -11, 141, -154, -8, -17, -8, 2510, 50
1486824576.5183983, -775, -294, -12, 127, -164, -13, -13, -3, 2510, 50
1486824576.5274239, -769, -304, -12, 141, -161, -17, -13, -22, 2510, 1390
1486824576.5288498, -766, -316, -13, 155, -146, -11, -16, -14, 2510, 1390
1486824576.5289226, -772, -322, -11, 158, -140, -15, -15, -11, 2510, 1390
1486824576.5386062, -775, -316, -13, 146, -151, -15, -15, -10, 2510, 1390
1486824576.5401762, -770, -307, -12, 145, -156, -14, -24, -16, 2510, 1390
1486824576.542557, -754, -310, -12, 153, -142, -15, -18, -18, 2510, 1390
1486824576.5536969, -759, -313, -12, 157, -138, -13, -14, -12, 2510, 1390
1486824576.5545487, -763, -311, -12, 149, -150, -15, -14, -21, 2510, 1390
1486824576.555483, -766, -300, -12, 126, -165, -14, -13, -17, 2510, 1390
1486824576.5614269, -763, -304, -12, 122, -160, -10, -19, -21, 2510, 1390
1486824576.56233, -755, -308, -13, 141, -149, -15, -15, -18, 2510, 1390
1486824576.5636292, -745, -307, -13, 153, -145, -13, -16, -14, 2510, 1390
1486824576.5761385, -747, -304, -12, 146, -145, -11, -22, -23, 2510, 1390
1486824576.5771546, -752, -290, -12, 138, -167, -15, -9, -18, 2510, 1390
1486824576.577829, -737, -296, -12, 136, -164, -11, -9, -14, 2510, 1390
1486824576.5911539, -736, -295, -13, 149, -153, -15, -12, -12, 2510, 1390
1486824576.5921032, -734, -298, -12, 156, -145, -13, -13, -13, 2510, 1390
1486824576.5925431, -743, -293, -12, 148, -154, -14, -14, -12, 2510, 1390
1486824576.5955472, -753, -300, -12, 126, -165, -14, -13, -17, 2510, 1390
1486824576.5986524, -743, -293, -12, 133, -156, -10, -17, -18, 2510, 1390
1486824576.5997055, -729, -293, -12, 148, -151, -15, -18, -23, 2510, 1390
1486824576.600927, -735, -297, -13, 157, -145, -13, -21, -23, 2510, 1390
1486824576.613664, -730, -294, -12, 147, -150, -14, -12, -19, 2510, 1390
1486824576.6145847, -734, -287, -12, 130, -159, -16, -13, -16, 2510, 1390
1486824576.6171844, -732, -286, -11, 133, -164, -11, -9, -14, 2510, 1390
1486824576.6285586, -726, -293, -12, 141, -147, -13, -11, -16, 2510, 1390
1486824576.628968, -726, -290, -12, 147, -148, -15, -17, -14, 2510, 1390
1486824576.6301134, -724, -279, -12, 133, -152, -11, -11, -12, 2510, 1390
1486824576.6361566, -729, -275, -13, 121, -164, -16, -19, -18, 2510, 1390
1486824576.637176, -720, -273, -12, 122, -157, -10, -17, -15, 2510, 1390
1486824576.6374867, -712, -279, -13, 134, -153, -10, -12, -15, 2510, 1390
1486824576.651261, -716, -283, -13, 131, -147, -10, -14, -13, 2510, 1390
1486824576.6520903, -715, -276, -12, 115, -163, -15, -20, -15, 2510, 1390
1486824576.6537595, -716, -271, -12, 104, -172, -11, -20, -13, 2510, 1390
1486824576.666339, -713, -273, -12, 114, -158, -9, -14, -13, 2510, 1390
1486824576.6670265, -718, -276, -11, 128, -150, -13, -17, -16, 2510, 1390
1486824576.6684895, -707, -270, -12, 131, -142, -15, -17, -14, 2510, 1390
1486824576.6736763, -718, -264, -12, 106, -170, -6, -12, -7, 2510, 1390
1486824576.6745152, -718, -263, -13, 105, -176, -17, -19, -13, 2510, 1390
1486824576.676096, -714, -263, -12, 110, -174, -10, -17, -15, 2510, 1390
1486824576.6886497, -704, -266, -12, 127, -158, -14, -15, -22, 2510, 1390
1486824576.6896553, -707, -264, -13, 118, -165, -16, -21, -16, 2510, 1390
1486824576.6913943, -714, -263, -11, 110, -179, -14, -15, -15, 2510, 1390
1486824576.703674, -703, -256, -13, 106, -175, -12, -9, -9, 2510, 1390
1486824576.7045448, -707, -261, -13, 113, -161, -10, -13, -13, 2510, 1390
1486824576.7052357, -698, -262, -12, 119, -153, -15, -17, -9, 2510, 1390
1486824576.7111197, -706, -261, -12, 124, -164, -12, -22, -17, 2510, 1390
1486824576.7115374, -708, -258, -12, 112, -173, -13, -17, -11, 2510, 1390
1486824576.7154815, -717, -251, -13, 103, -176, -14, -23, -17, 2510, 1390
1486824576.7271023, -702, -254, -12, 114, -164, -11, -17, -16, 2510, 1390
1486824576.7295616, -689, -254, -12, 125, -159, -11, -18, -8, 2510, 1390
1486824576.7296345, -693, -254, -12, 118, -162, -16, -21, -16, 2510, 1390
1486824576.7410398, -697, -249, -12, 112, -158, -13, -17, 2, 2510, 1390
1486824576.7417438, -685, -248, -12, 109, -167, -14, -13, -8, 2510, 1390
1486824576.7420204, -680, -250, -13, 120, -150, -13, -18, -13, 2510, 1390
1486824576.7485206, -688, -250, -11, 128, -159, -19, -10, -7, 2510, 1390
1486824576.7492006, -690, -249, -12, 119, -160, -12, -11, -12, 2510, 1390
1486824576.7499926, -690, -241, -12, 104, -169, -9, -17, -19, 2510, 1390
1486824576.7635653, -678, -234, -12, 109, -165, -18, -23, -14, 2510, 1390
1486824576.7639956, -674, -241, -11, 131, -150, -12, -21, -13, 2510, 1390
1486824576.7647305, -680, -244, -12, 142, -143, -11, -18, -8, 2510, 1390
1486824576.7862663, -673, -237, -11, 117, -160, -13, -15, -11, 2510, 1390
1486824576.7866664, -641, -206, -12, 85, -181, -21, -12, -10, 2510, 1390
1486824576.7870307, -623, -201, -13, 99, -163, -22, -18, -8, 2510, 1390
1486824576.7893827, -594, -208, -12, 124, -135, -15, -16, -14, 2510, 1390
1486824576.7937553, -568, -201, -12, 137, -128, -10, -9, -10, 2510, 1390
1486824576.796832, -558, -180, -11, 134, -140, -17, -16, -8, 2510, 1390
1486824576.801286, -545, -165, -13, 127, -137, -12, -12, -11, 2510, 1390
1486824576.801846, -524, -148, -12, 141, -133, -7, -18, -19, 2510, 1390
1486824576.8076637, -497, -150, -12, 167, -104, -13, -14, -15, 2510, 1390
1486824576.8134966, -680, -244, -12, 142, -143, -9, -11, -14, 2510, 1390
1486824576.8161676, -484, -135, -13, 187, -112, -18, -17, -16, 2510, 1390
1486824576.8170753, -472, -124, -13, 178, -118, -9, -18, -17, 2510, 1390
1486824576.8192048, -452, -201, -13, 99, -163, -22, -18, -14, 2510, 1390
1486824576.8238175, -434, -118, -12, 188, -103, -20, -18, -10, 2510, 1390
1486824576.824313, -420, -113, -12, 193, -109, -21, -18, -14, 2510, 1390
1486824576.8260214, -422, -107, -12, 134, -140, -17, -16, -8, 2510, 1390
1486824576.8385665, -422, -102, -12, 175, -126, -18, -15, -13, 2510, 1390
1486824576.838939, -410, -108, -13, 182, -117, -20, -13, -15, 2510, 1390
1486824576.8414214, -497, -150, -12, 167, -104, -13, -14, -15, 2510, 1390
1486824576.8536584, -400, -108, -12, 191, -121, -18, -11, -6, 2510, 1390
1486824576.8546438, -407, -110, -12, 175, -139, -17, -17, -15, 2510, 1390
1486824576.8576348, -403, -106, -12, 178, -118, -9, -18, -17, 2510, 1390
1486824576.861149, -391, -108, -12, 171, -118, -11, -10, -8, 2510, 1390
1486824576.862086, -395, -116, -12, 182, -117, -20, -15, -11, 2510, 1390
1486824576.863002, -394, -110, -12, 172, -122, -13, -18, -14, 2510, 1390
1486824576.87626, -397, -104, -13, 154, -136, -12, -11, -13, 2510, 1390
1486824576.877079, -396, -104, -13, 152, -134, -14, -16, -15, 2510, 1390
1486824576.878566, -384, -105, -13, 166, -127, -17, -12, -13, 2510, 1390
1486824576.8910387, -383, -117, -13, 180, -114, -17, -16, -14, 2510, 1390
1486824576.892076, -393, -113, -12, 176, -128, -13, -15, -12, 2510, 1390
1486824576.892582, -387, -103, -13, 159, -144, -13, -9, -10, 2510, 1390
1486824576.8986413, -383, -101, -13, 155, -143, -17, -15, -16, 2510, 1390
1486824576.8993633, -375, -113, -12, 167, -126, -17, -15, -10, 2510, 1390
1486824576.9003825, -376, -114, -11, 177, -128, -20, -15, -11, 2510, 1390
1486824576.9136164, -370, -109, -12, 167, -135, -14, -15, -15, 2510, 1390
1486824576.9146178, -375, -100, -13, 150, -142, -11, -10, -15, 2510, 1390
1486824576.9155161, -365, -104, -13, 147, -151, -18, -11, -15, 2510, 1390
1486824576.9287248, -367, -111, -12, 157, -138, -15, -11, -10, 2510, 1390
1486824576.9296436, -368, -108, -12, 166, -130, -12, -15, -11, 2510, 1390
1486824576.9305072, -364, -108, -12, 155, -143, -8, -16, -12, 2510, 1390
1486824576.93627, -370, -100, -12, 139, -151, -15, -20, -7, 2510, 1390
1486824576.9371436, -354, -96, -13, 139, -161, -17, -17, -11, 2510, 1390
1486824576.9382427, -359, -107, -12, 154, -150, -17, -17, -12, 2510, 1390
1486824576.9514496, -364, -105, -12, 159, -133, -11, -12, -14, 2510, 1390
1486824576.9519036, -366, -105, -12, 152, -148, -7, -13, -13, 2510, 1390
1486824576.9539344, -374, -103, -13, 140, -160, -11, -10, -15, 2510, 1390
1486824576.9661636, -366, -100, -12, 140, -150, -12, -17, -10, 2510, 1390
1486824576.9666371, -351, -102, -12, 151, -143, -20, -19, -7, 2510, 1390
1486824576.9695098, -354, -115, -11, 163, -135, -12, -15, -11, 2510, 1390
1486824576.9736688, -353, -104, -11, 152, -142, -12, -12, -10, 2510, 1390
1486824576.9743237, -353, -107, -13, 155, -140, -11, -17, -9, 2510, 1390
1486824576.9750304, -345, -116, -12, 162, -141, -16, -17, -11, 2510, 1390
1486824576.988704, -335, -119, -12, 173, -125, -18, -24, -16, 2510, 1390
1486824576.9893134, -341, -118, -14, 175, -139, -17, -22, -8, 2510, 1390
1486824576.9898221, -345, -106, -13, 158, -150, -13, -10, -13, 2510, 1390
1486824577.0036228, -343, -100, -13, 143, -150, -16, -15, -10, 2510, 1390
1486824577.0040092, -333, -102, -12, 151, -144, -21, -29, -11, 2510, 1390
1486824577.0055776, -331, -111, -11, 165, -134, -20, -19, -7, 2510, 1390
1486824577.0112076, -339, -108, -11, 159, -136, -21, -16, -6, 2510, 1390
1486824577.0121422, -337, -103, -11, 146, -148, -19, -18, -11, 2510, 1390
1486824577.0127144, -334, -102, -12, 141, -154, -21, -18, -13, 2510, 1390
1486824577.026227, -323, -106, -12, 147, -140, -19, -18, -12, 2510, 1390
1486824577.027203, -323, -114, -12, 168, -131, -18, -10, -8, 2510, 1390
1486824577.0281823, -330, -116, -11, 164, -133, -17, -22, -8, 2510, 1390
1486824577.0412903, -338, -105, -13, 152, -152, -15, -14, -11, 2510, 1390
1486824577.0418327, -332, -104, -12, 144, -149, -20, -11, -12, 2510, 1390
1486824577.0421968, -321, -108, -12, 151, -135, -10, -11, -10, 2510, 1390
1486824577.048945, -317, -111, -13, 163, -122, -10, -5, -10, 2510, 1390
1486824577.0503654, -329, -110, -12, 164, -127, -6, -7, -16, 2510, 1390
1486824577.0520897, -332, -96, -12, 152, -148, -12, -4, -11, 2510, 1390
1486824577.05216, -334, -102, -12, 141, -154, -21, -18, -13, 2510, 1390
1486824577.0670679, -320, -102, -12, 158, -131, -17, -15, -10, 2510, 1390
1486824577.067466, -315, -105, -13, 170, -125, -13, -12, -9, 2510, 1390
1486824577.0675046, -328, -116, -11, 164, -133, -15, -12, -12, 2510, 1390
1486824577.0786607, -324, -96, -12, 140, -158, -12, -13, -15, 2510, 1390
1486824577.0797431, -312, -88, -13, 135, -162, -13, -12, -13, 2510, 1390
1486824577.0824766, -309, -95, -13, 151, -135, -10, -11, -10, 2510, 1390
1486824577.086315, -306, -94, -12, 146, -142, -13, -16, -13, 2510, 1390
1486824577.0871649, -317, -92, -12, 142, -154, -19, -16, -14, 2510, 1390
1486824577.0892563, -313, -86, -12, 132, -148, -12, -4, -11, 2510, 1390
1486824577.1015108, -310, -95, -12, 142, -142, -17, -13, -16, 2510, 1390
1486824577.1019168, -303, -96, -12, 154, -133, -17, -11, -3, 2510, 1390
1486824577.1022344, -307, -99, -12, 166, -125, -13, -12, -9, 2510, 1390
1486824577.1165235, -321, -93, -12, 148, -149, -24, -21, -17, 2510, 1390
1486824577.1169467, -306, -81, -12, 133, -150, -24, -20, -19, 2510, 1390
1486824577.1194017, -306, -87, -13, 135, -143, -16, -17, -13, 2510, 1390
1486824577.1237223, -293, -90, -14, 146, -125, -13, -16, -7, 2510, 1390
1486824577.1247241, -299, -92, -12, 147, -130, -18, -18, -13, 2510, 1390
1486824577.125489, -300, -84, -12, 132, -154, -15, -11, -19, 2510, 1390
1486824577.1387026, -295, -76, -13, 116, -165, -15, -14, -16, 2510, 1390
1486824577.1396935, -296, -81, -12, 123, -153, -20, -15, -19, 2510, 1390
1486824577.141866, -290, -85, -12, 137, -144, -16, -13, -14, 2510, 1390
1486824577.154716, -282, -87, -13, 138, -145, -21, -11, -12, 2510, 1390
1486824577.1547878, -292, -80, -13, 127, -156, -14, -15, -9, 2510, 1390
1486824577.155915, -290, -79, -11, 116, -159, -18, -10, -11, 2510, 1390
1486824577.1614652, -285, -81, -13, 126, -160, -16, -8, -15, 2510, 1390
1486824577.1619468, -285, -84, -13, 139, -137, -11, -11, -16, 2510, 1390
1486824577.1626384, -291, -79, -12, 139, -137, -18, -18, -13, 2510, 1390
1486824577.1762404, -296, -70, -12, 126, -157, -16, -8, -14, 2510, 1390
1486824577.1771533, -294, -69, -12, 121, -159, -13, -5, -11, 2510, 1390
1486824577.1780353, -291, -76, -12, 125, -149, -11, -9, -18, 2510, 1390
1486824577.1913106, -283, -80, -13, 131, -139, -17, -16, -15, 2510, 1390
1486824577.1921802, -292, -82, -14, 129, -147, -14, -10, -6, 2510, 1390
1486824577.193443, -297, -75, -12, 118, -149, -16, -14, -10, 2510, 1390
1486824577.1986291, -300, -71, -12, 109, -158, -15, -16, -7, 2510, 1390
1486824577.199025, -292, -74, -13, 116, -148, -17, -17, -13, 2510, 1390
1486824577.203173, -294, -79, -13, 137, -139, -13, -22, -14, 2510, 1390
